4/12/2023 3:36:53 pm
Time(s)	Displacement(mm)	Force(N)
0.0000	-267.3350	1.1533
0.1410	-267.3350	1.1532
0.2415	-267.3350	1.1536
0.3423	-267.3350	1.1537
0.4430	-267.3350	1.1544
0.5427	-267.3350	1.1543
0.6425	-267.3350	1.1554
0.7436	-267.3350	1.1553
0.8445	-267.3350	1.1577
0.9452	-267.3350	1.1560
1.0463	-267.3350	1.1557
1.1463	-267.3350	1.1556
1.2461	-267.3350	1.1564
1.3457	-267.3350	1.1570
1.4459	-267.3350	1.1560
1.5464	-267.3350	1.1583
1.6460	-267.3350	1.1575
1.7456	-267.3350	1.1586
1.8455	-267.3350	1.1550
1.9466	-267.3350	1.1564
2.0475	-267.3350	1.1564
2.1473	-267.3350	1.1549
2.2471	-267.3350	1.1563
2.3473	-267.3350	1.1536
2.4480	-267.3350	1.1550
2.5476	-267.3350	1.1537
2.6479	-267.3350	1.1549
2.7485	-267.3350	1.1564
2.8477	-267.3350	1.1547
2.9495	-267.3350	1.1567
3.0496	-267.3350	1.1597
3.1496	-267.3350	1.1547
3.2496	-267.3350	1.1554
3.3499	-267.3350	1.1563
3.4499	-267.3350	1.1539
3.5506	-267.3350	1.1527
3.6513	-267.3350	1.1522
3.7506	-267.3350	1.1565
3.8506	-267.3350	1.1520
3.9509	-267.3350	1.1549
4.0514	-267.3350	1.1561
4.1507	-267.3350	1.1585
4.2505	-267.3350	1.1550
4.3505	-267.3350	1.1582
4.4506	-267.3350	1.1567
4.5514	-267.3350	1.1577
4.6514	-267.3350	1.1572
4.7505	-267.3350	1.1593
4.8508	-267.1990	1.1748
4.9724	-266.9950	1.1476
5.0719	-267.0000	1.1646
5.1717	-267.0000	1.1651
5.2718	-267.0000	1.1650
5.3724	-267.0000	1.1640
5.4725	-267.0000	1.1634
5.5717	-267.0000	1.1621
5.6723	-267.0000	1.1595
5.7720	-267.0000	1.1617
5.8717	-267.0000	1.1606
5.9729	-267.0000	1.1609
6.0732	-267.0000	1.1602
6.1731	-267.0000	1.1622
6.2727	-267.0000	1.1634
6.3726	-267.0000	1.1604
6.4732	-267.0000	1.1624
6.5730	-267.0000	1.1659
6.6725	-267.0000	1.1601
6.7727	-267.0000	1.1627
6.8731	-267.0000	1.1612
6.9731	-267.0000	1.1621
7.0726	-267.0000	1.1597
7.1744	-267.0000	1.1588
7.2737	-267.0000	1.1624
7.3740	-267.0000	1.1605
7.4739	-267.0000	1.1605
7.5744	-267.0000	1.1604
7.6740	-267.0000	1.1595
7.7742	-267.0000	1.1612
7.8739	-267.0000	1.1583
7.9739	-267.0000	1.1613
8.0741	-267.0000	1.1599
8.1739	-267.0000	1.1598
8.2739	-267.0000	1.1623
8.3741	-267.0000	1.1602
8.4742	-267.0000	1.1626
8.5742	-267.0000	1.1611
8.6739	-267.0000	1.1601
8.7739	-267.0000	1.1623
8.8740	-267.0000	1.1615
8.9740	-267.0000	1.1603
9.0739	-267.0000	1.1610
9.1740	-267.0000	1.1588
9.2744	-267.0000	1.1585
9.3738	-267.0000	1.1594
9.4739	-267.0000	1.1623
9.5739	-267.0000	1.1590
9.6740	-267.0000	1.1613
9.7741	-267.0000	1.1600
9.8739	-267.0000	1.1595
9.9737	-267.0000	1.1590
10.0739	-267.0000	1.1610
10.1743	-267.0000	1.1618
10.2737	-267.0000	1.1591
10.3743	-267.0000	1.1626
10.4744	-267.0000	1.1632
10.5743	-267.0000	1.1595
10.6747	-267.0000	1.1605
10.7751	-267.0000	1.1619
10.8753	-267.0000	1.1596
10.9755	-267.0000	1.1575
11.0747	-267.0000	1.1619
11.1755	-267.0000	1.1615
11.2757	-267.0000	1.1578
11.3758	-267.0000	1.1616
11.4762	-267.0000	1.1613
11.5770	-267.0000	1.1598
11.6768	-267.0000	1.1572
11.7780	-267.0000	1.1595
11.8788	-267.0000	1.1583
11.9795	-267.0000	1.1584
12.0792	-267.0000	1.1608
12.1800	-267.0000	1.1627
12.2797	-267.0000	1.1587
12.3802	-267.0000	1.1607
12.4810	-267.0000	1.1615
12.5809	-267.0000	1.1620
12.6813	-267.0000	1.1610
12.7814	-267.0000	1.1629
12.8808	-267.0000	1.1667
12.9809	-267.0000	1.1619
13.0816	-267.0000	1.1645
13.1811	-267.0000	1.1674
13.2809	-267.1460	1.1533
13.4017	-267.5600	1.1516
13.5034	-268.2110	1.1504
13.6031	-268.8950	1.1415
13.7029	-269.5780	1.1332
13.8034	-270.0060	1.1469
13.9044	-270.0000	1.1341
14.0056	-270.0000	1.1354
14.1062	-270.0000	1.1369
14.2061	-270.0000	1.1359
14.3069	-270.0000	1.1348
14.4084	-270.0000	1.1313
14.5079	-270.0000	1.1309
14.6081	-270.0000	1.1323
14.7089	-270.0000	1.1309
14.8096	-270.0000	1.1302
14.9090	-270.0000	1.1327
15.0087	-270.0000	1.1339
15.1088	-270.0000	1.1341
15.2087	-270.0000	1.1321
15.3107	-270.0000	1.1303
15.4111	-270.0000	1.1304
15.5119	-270.0000	1.1330
15.6121	-270.0000	1.1339
15.7118	-270.0000	1.1338
15.8119	-270.0000	1.1334
15.9116	-270.0000	1.1335
16.0120	-270.0000	1.1322
16.1125	-270.0000	1.1322
16.2118	-270.0000	1.1322
16.3125	-270.0000	1.1323
16.4135	-270.0000	1.1327
16.5133	-270.0000	1.1321
16.6138	-270.0000	1.1323
16.7140	-270.0000	1.1319
16.8140	-270.0000	1.1297
16.9138	-270.0000	1.1331
17.0149	-270.0000	1.1311
17.1154	-270.0000	1.1316
17.2154	-270.0000	1.1337
17.3163	-270.0000	1.1339
17.4165	-270.0000	1.1341
17.5164	-270.0000	1.1344
17.6174	-270.0000	1.1361
17.7168	-270.0000	1.1340
17.8177	-270.0000	1.1341
17.9179	-270.0000	1.1335
18.0179	-270.0000	1.1303
18.1191	-270.0000	1.1310
18.2190	-270.0000	1.1334
18.3189	-270.0000	1.1325
18.4195	-270.0000	1.1343
18.5196	-270.0000	1.1336
18.6188	-270.0000	1.1335
18.7200	-270.0000	1.1339
18.8203	-270.0000	1.1368
18.9216	-270.0000	1.1330
19.0209	-270.0000	1.1338
19.1218	-270.0000	1.1366
19.2227	-270.0000	1.1365
19.3238	-270.0000	1.1347
19.4239	-270.0000	1.1353
19.5237	-270.0000	1.1337
19.6245	-270.0000	1.1327
19.7247	-270.0000	1.1343
19.8260	-270.0000	1.1319
19.9262	-270.0000	1.1363
20.0265	-270.0000	1.1323
20.1264	-270.0000	1.1331
20.2263	-270.0000	1.1332
20.3270	-270.0000	1.1344
20.4285	-270.0000	1.1336
20.5281	-270.0000	1.1339
20.6277	-270.0000	1.1326
20.7288	-270.0000	1.1317
20.8293	-270.0000	1.1324
20.9291	-270.0000	1.1300
21.0292	-270.0000	1.1276
21.1295	-270.0000	1.1305
21.2291	-270.0000	1.1305
21.3299	-270.0000	1.1300
21.4307	-270.0000	1.1290
21.5315	-270.0000	1.1301
21.6323	-270.0000	1.1293
21.7320	-270.0000	1.1292
21.8318	-270.0000	1.1303
21.9317	-270.0000	1.1329
22.0320	-270.0000	1.1324
22.1318	-270.0000	1.1305
22.2326	-270.1480	1.1339
22.3523	-270.5630	1.1113
22.4528	-271.2130	1.1210
22.5537	-271.8970	1.1201
22.6537	-272.5470	1.1180
22.7528	-273.2310	1.1218
22.8527	-273.8800	1.1178
22.9544	-274.5640	1.1172
23.0541	-275.2140	1.1164
23.1548	-275.9000	1.1194
23.2557	-276.5830	1.1188
23.3574	-277.2330	1.1164
23.4585	-277.9180	1.1125
23.5584	-278.6020	1.1156
23.6581	-279.2510	1.1154
23.7585	-279.9350	1.1152
23.8590	-280.5840	1.1136
23.9594	-281.2680	1.1141
24.0587	-281.9520	1.1164
24.1594	-282.6010	1.1165
24.2592	-283.2500	1.1160
24.3587	-283.9370	1.1124
24.4587	-284.5860	1.1151
24.5604	-285.2720	1.1139
24.6603	-285.9560	1.1123
24.7603	-286.6050	1.1101
24.8602	-287.2880	1.1096
24.9604	-287.9380	1.1054
25.0603	-288.5880	1.1031
25.1609	-289.2710	1.1036
25.2610	-289.9550	1.1012
25.3607	-290.6040	1.0959
25.4609	-291.2880	1.0939
25.5610	-291.9380	1.0869
25.6616	-292.6210	1.0818
25.7616	-293.2700	1.0761
25.8614	-293.9540	1.0714
25.9614	-294.6030	1.0635
26.0614	-295.2870	1.0570
26.1617	-295.9360	1.0448
26.2612	-296.6200	1.0346
26.3619	-297.2690	1.0214
26.4623	-297.9550	1.0088
26.5619	-298.6040	0.9899
26.6621	-299.2880	0.9739
26.7619	-299.9370	0.9557
26.8626	-300.6210	0.9371
26.9619	-301.2710	0.9174
27.0626	-301.9550	0.8944
27.1620	-302.6040	0.8675
27.2637	-303.2870	0.8385
27.3638	-303.9710	0.8074
27.4652	-304.6540	0.7715
27.5652	-305.3040	0.7336
27.6665	-305.9870	0.6955
27.7658	-306.6370	0.6515
27.8660	-307.3210	0.6025
27.9664	-307.9700	0.5520
28.0658	-308.6540	0.4972
28.1658	-309.3030	0.4387
28.2662	-309.9860	0.3744
28.3659	-310.6360	0.3010
28.4669	-311.3200	0.2193
28.5695	-312.0030	0.1330
28.6700	-312.6870	0.0385
28.7699	-313.3360	-0.0628
28.8698	-314.0190	-0.1790
28.9701	-314.6710	-0.3066
29.0702	-315.3550	-0.4465
29.1709	-315.6390	-0.8327
29.2714	-315.6410	-1.1012
29.3715	-315.6410	-0.9835
29.4709	-315.6410	-0.9321
29.5709	-315.6410	-0.8980
29.6719	-315.6400	-0.8772
29.7724	-315.6400	-0.8586
29.8725	-315.6400	-0.8451
29.9730	-315.6400	-0.8308
30.0734	-315.6400	-0.8201
30.1731	-315.6400	-0.8107
30.2729	-315.6400	-0.8020
30.3731	-315.6400	-0.7961
30.4729	-315.6400	-0.7906
30.5737	-315.6400	-0.7840
30.6729	-315.6400	-0.7777
30.7737	-315.6400	-0.7733
30.8746	-315.6400	-0.7642
30.9741	-315.6400	-0.7628
31.0741	-315.6400	-0.7575
31.1742	-315.6400	-0.7529
31.2741	-315.6400	-0.7509
31.3740	-315.6400	-0.7462
31.4742	-315.6400	-0.7407
31.5741	-315.6400	-0.7411
31.6740	-315.6400	-0.7375
31.7752	-315.6400	-0.7322
31.8756	-315.6400	-0.7321
31.9760	-315.6400	-0.7261
32.0774	-315.6400	-0.7269
32.1770	-315.6400	-0.7256
32.2787	-315.6400	-0.7196
32.3797	-315.6400	-0.7178
32.4791	-315.6400	-0.7176
32.5800	-315.6400	-0.7110
32.6807	-315.6400	-0.7118
32.7804	-315.6400	-0.7126
32.8802	-315.6400	-0.7088
32.9803	-315.6400	-0.7085
33.0800	-315.6400	-0.7054
33.1809	-315.6400	-0.7033
33.2813	-315.6400	-0.7028
33.3812	-315.6400	-0.7038
33.4813	-315.6400	-0.6991
33.5809	-315.6400	-0.6986
33.6815	-315.6400	-0.6958
33.7818	-315.6400	-0.6918
33.8814	-315.6400	-0.6926
33.9818	-315.6400	-0.6901
34.0815	-315.6400	-0.6899
34.1811	-315.6400	-0.6886
34.2818	-315.6400	-0.6862
34.3825	-315.6400	-0.6850
34.4825	-315.6400	-0.6844
34.5820	-315.6400	-0.6794
34.6819	-315.6400	-0.6825
34.7819	-315.6400	-0.6787
34.8821	-315.6400	-0.6793
34.9823	-315.6400	-0.6764
35.0828	-315.6400	-0.6761
35.1825	-315.6400	-0.6739
35.2819	-315.6400	-0.6749
35.3840	-315.6400	-0.6715
35.4839	-315.6400	-0.6716
35.5840	-315.6400	-0.6710
35.6839	-315.6400	-0.6693
35.7841	-315.6400	-0.6674
35.8842	-315.6400	-0.6666
35.9840	-315.6400	-0.6663
36.0839	-315.6400	-0.6638
36.1852	-315.6400	-0.6623
36.2867	-315.6400	-0.6631
36.3862	-315.6400	-0.6609
36.4864	-315.6400	-0.6596
36.5862	-315.6400	-0.6586
36.6863	-315.6400	-0.6572
36.7859	-315.6400	-0.6565
36.8861	-315.6400	-0.6581
36.9866	-315.6400	-0.6567
37.0863	-315.6400	-0.6535
37.1859	-315.6400	-0.6548
37.2863	-315.6400	-0.6527
37.3866	-315.6400	-0.6521
37.4874	-315.6400	-0.6520
37.5887	-315.6400	-0.6500
37.6885	-315.6400	-0.6518
37.7882	-315.6400	-0.6501
37.8882	-315.6400	-0.6496
37.9888	-315.6400	-0.6492
38.0890	-315.6400	-0.6474
38.1897	-315.6400	-0.6466
38.2902	-315.6400	-0.6492
38.3905	-315.6400	-0.6472
38.4905	-315.6400	-0.6442
38.5909	-315.6400	-0.6451
38.6911	-315.6400	-0.6449
38.7912	-315.6400	-0.6429
38.8918	-315.6400	-0.6421
38.9918	-315.6400	-0.6410
39.0909	-315.6400	-0.6397
39.1919	-315.6400	-0.6405
39.2919	-315.6400	-0.6405
39.3922	-315.6400	-0.6389
39.4923	-315.6400	-0.6370
39.5920	-315.6400	-0.6353
39.6921	-315.6400	-0.6353
39.7927	-315.6400	-0.6371
39.8925	-315.6400	-0.6359
39.9920	-315.6400	-0.6351
40.0929	-315.6400	-0.6341
40.1929	-315.6400	-0.6329
40.2930	-315.6400	-0.6311
40.3935	-315.6400	-0.6316
40.4942	-315.6400	-0.6325
40.5943	-315.6400	-0.6327
40.6941	-315.6400	-0.6308
40.7944	-315.6400	-0.6301
40.8942	-315.6400	-0.6280
40.9941	-315.6400	-0.6291
41.0940	-315.6400	-0.6267
41.1942	-315.6400	-0.6252
41.2942	-315.6400	-0.6243
41.3940	-315.6400	-0.6253
41.4941	-315.6400	-0.6258
41.5949	-315.6400	-0.6245
41.6952	-315.6400	-0.6245
41.7952	-315.6400	-0.6236
41.8981	-315.6400	-0.6239
41.9977	-315.6400	-0.6211
42.0972	-315.6400	-0.6198
42.1970	-315.6400	-0.6194
42.2969	-315.6400	-0.6190
42.3978	-315.6400	-0.6197
42.4982	-315.6400	-0.6206
42.5982	-315.6400	-0.6214
42.6986	-315.6400	-0.6206
42.7988	-315.6400	-0.6188
42.8980	-315.6400	-0.6188
42.9986	-315.6400	-0.6195
43.0984	-315.6400	-0.6161
43.1988	-315.6400	-0.6171
43.2982	-315.6400	-0.6175
43.3980	-315.6400	-0.6162
43.4981	-315.6400	-0.6168
43.5984	-315.6400	-0.6168
43.6980	-315.6400	-0.6156
43.7981	-315.6400	-0.6131
43.8987	-315.6400	-0.6146
43.9988	-315.6400	-0.6137
44.0988	-315.6400	-0.6155
44.1990	-315.6400	-0.6141
44.3000	-315.6400	-0.6114
44.4006	-315.6400	-0.6142
44.5004	-315.6400	-0.6115
44.6015	-315.6400	-0.6117
44.7019	-315.6400	-0.6102
44.8030	-315.6400	-0.6096
44.9033	-315.6400	-0.6082
45.0038	-315.6400	-0.6071
45.1042	-315.6400	-0.6094
45.2043	-315.6400	-0.6084
45.3043	-315.6400	-0.6073
45.4042	-315.6400	-0.6079
45.5042	-315.6400	-0.6061
45.6042	-315.6400	-0.6058
45.7042	-315.6400	-0.6064
45.8039	-315.6400	-0.6061
45.9042	-315.6400	-0.6057
46.0043	-315.6400	-0.6054
46.1044	-315.6400	-0.6072
46.2040	-315.6400	-0.6061
46.3042	-315.6400	-0.6029
46.4043	-315.6400	-0.6060
46.5044	-315.6400	-0.6022
46.6044	-315.6400	-0.6003
46.7045	-315.6400	-0.6012
46.8041	-315.6400	-0.6014
46.9039	-315.6400	-0.5987
47.0041	-315.6400	-0.5989
47.1045	-315.6400	-0.6000
47.2042	-315.6400	-0.5974
47.3048	-315.6400	-0.5993
47.4045	-315.6400	-0.5984
47.5044	-315.6400	-0.5976
47.6039	-315.6400	-0.5965
47.7042	-315.6400	-0.5969
47.8039	-315.6400	-0.5937
47.9040	-315.6400	-0.5971
48.0041	-315.6400	-0.5939
48.1052	-315.6400	-0.5941
48.2068	-315.6400	-0.5911
48.3062	-315.6400	-0.5930
48.4067	-315.6400	-0.5920
48.5064	-315.6400	-0.5938
48.6066	-315.6400	-0.5934
48.7061	-315.6400	-0.5932
48.8065	-315.6400	-0.5914
48.9063	-315.6400	-0.5923
49.0062	-315.6400	-0.5938
49.1065	-315.6400	-0.5917
49.2065	-315.6400	-0.5906
49.3067	-315.6400	-0.5901
49.4070	-315.6400	-0.5914
49.5071	-315.6400	-0.5911
49.6080	-315.6400	-0.5891
49.7089	-315.6400	-0.5873
49.8082	-315.6400	-0.5914
49.9092	-315.6400	-0.5887
50.0101	-315.6400	-0.5889
50.1104	-315.6400	-0.5880
50.2114	-315.6400	-0.5869
50.3115	-315.6400	-0.5857
50.4119	-315.6400	-0.5877
50.5116	-315.6400	-0.5889
50.6119	-315.6400	-0.5915
50.7117	-315.6400	-0.5846
50.8116	-315.6400	-0.5886
50.9116	-315.6400	-0.5873
51.0115	-315.6400	-0.5885
51.1114	-315.6400	-0.5868
51.2119	-315.6400	-0.5852
51.3116	-315.6400	-0.5838
51.4111	-315.6400	-0.5852
51.5110	-315.6400	-0.5851
51.6118	-315.6400	-0.5845
51.7111	-315.6400	-0.5875
51.8120	-315.6400	-0.5862
51.9131	-315.6400	-0.5828
52.0131	-315.6400	-0.5828
52.1130	-315.6400	-0.5852
52.2136	-315.6400	-0.5824
52.3140	-315.6400	-0.5808
52.4132	-315.6400	-0.5819
52.5131	-315.6400	-0.5810
52.6137	-315.6400	-0.5824
52.7139	-315.6400	-0.5820
52.8136	-315.6400	-0.5825
52.9142	-315.6400	-0.5801
53.0141	-315.6400	-0.5811
53.1143	-315.6400	-0.5789
53.2147	-315.6400	-0.5817
53.3143	-315.6400	-0.5815
53.4145	-315.6400	-0.5799
53.5153	-315.6400	-0.5819
53.6167	-315.6400	-0.5790
53.7175	-315.6400	-0.5775
53.8189	-315.6400	-0.5794
53.9183	-315.6400	-0.5786
54.0191	-315.6400	-0.5774
54.1196	-315.6400	-0.5779
54.2191	-315.6400	-0.5760
54.3194	-315.6400	-0.5794
54.4193	-315.6400	-0.5773
54.5194	-315.6400	-0.5746
54.6192	-315.6400	-0.5762
54.7198	-315.6400	-0.5769
54.8194	-315.6400	-0.5734
54.9201	-315.6400	-0.5755
55.0208	-315.6400	-0.5749
55.1202	-315.6400	-0.5739
55.2204	-315.6400	-0.5751
55.3201	-315.6400	-0.5744
55.4202	-315.6400	-0.5742
55.5202	-315.6400	-0.5744
55.6202	-315.6400	-0.5726
55.7201	-315.6400	-0.5731
55.8210	-315.6400	-0.5730
55.9205	-315.6400	-0.5739
56.0204	-315.6400	-0.5724
56.1210	-315.6400	-0.5721
56.2220	-315.6400	-0.5723
56.3221	-315.6400	-0.5705
56.4220	-315.6400	-0.5706
56.5229	-315.6400	-0.5725
56.6227	-315.6400	-0.5717
56.7221	-315.6400	-0.5718
56.8224	-315.6400	-0.5698
56.9222	-315.6400	-0.5700
57.0226	-315.6400	-0.5701
57.1222	-315.6400	-0.5692
57.2225	-315.6400	-0.5715
57.3222	-315.6400	-0.5689
57.4229	-315.6400	-0.5701
57.5224	-315.6400	-0.5703
57.6224	-315.6400	-0.5712
57.7220	-315.6400	-0.5690
57.8227	-315.6400	-0.5690
57.9231	-315.6400	-0.5683
58.0231	-315.6400	-0.5702
58.1235	-315.6400	-0.5674
58.2235	-315.6400	-0.5680
58.3237	-315.6400	-0.5684
58.4237	-315.6400	-0.5658
58.5235	-315.6400	-0.5681
58.6236	-315.6400	-0.5661
58.7235	-315.6400	-0.5652
58.8237	-315.6400	-0.5661
58.9234	-315.6400	-0.5655
59.0232	-315.6400	-0.5654
59.1249	-315.6400	-0.5653
59.2254	-315.6400	-0.5655
59.3245	-315.6400	-0.5668
59.4244	-315.6400	-0.5664
59.5259	-315.6400	-0.5649
59.6257	-315.6400	-0.5640
59.7260	-315.6400	-0.5644
59.8261	-315.6400	-0.5618
59.9278	-315.6400	-0.5656
60.0273	-315.6400	-0.5617
60.1271	-315.6400	-0.5644
60.2274	-315.6400	-0.5625
60.3274	-315.6400	-0.5600
60.4277	-315.6400	-0.5626
60.5271	-315.6400	-0.5602
60.6271	-315.6400	-0.5631
60.7282	-315.6400	-0.5616
60.8281	-315.6400	-0.5623
60.9290	-315.6400	-0.5607
61.0282	-315.6400	-0.5617
61.1291	-315.6400	-0.5604
61.2300	-315.6400	-0.5601
61.3291	-315.6400	-0.5601
61.4310	-315.6400	-0.5628
61.5305	-315.6400	-0.5590
61.6309	-315.6400	-0.5624
61.7320	-315.6400	-0.5591
61.8312	-315.6400	-0.5607
61.9322	-315.6400	-0.5587
62.0329	-315.6400	-0.5574
62.1321	-315.6400	-0.5597
62.2330	-315.6400	-0.5585
62.3329	-315.6400	-0.5581
62.4322	-315.6400	-0.5581
62.5321	-315.6400	-0.5544
62.6327	-315.6400	-0.5560
62.7330	-315.6400	-0.5561
62.8322	-315.6400	-0.5564
62.9334	-315.6400	-0.5541
63.0338	-315.6400	-0.5542
63.1349	-315.6400	-0.5549
63.2344	-315.6400	-0.5569
63.3344	-315.6400	-0.5583
63.4344	-315.6400	-0.5571
63.5358	-315.6400	-0.5539
63.6356	-315.6400	-0.5550
63.7365	-315.6400	-0.5575
63.8368	-315.6400	-0.5553
63.9364	-315.6400	-0.5563
64.0367	-315.6400	-0.5546
64.1361	-315.6400	-0.5551
64.2368	-315.6400	-0.5571
64.3368	-315.6400	-0.5555
64.4365	-315.6400	-0.5559
64.5368	-315.6400	-0.5552
64.6363	-315.6400	-0.5539
64.7366	-315.6400	-0.5542
64.8364	-315.6400	-0.5563
64.9368	-315.6400	-0.5551
65.0363	-315.6400	-0.5530
65.1362	-315.6400	-0.5558
65.2369	-315.6400	-0.5538
65.3366	-315.6400	-0.5526
65.4366	-315.6400	-0.5541
65.5364	-315.6400	-0.5533
65.6368	-315.6400	-0.5535
65.7361	-315.6400	-0.5516
65.8377	-315.6400	-0.5511
65.9373	-315.6400	-0.5506
66.0389	-315.6400	-0.5497
66.1384	-315.6400	-0.5514
66.2384	-315.6400	-0.5498
66.3385	-315.6400	-0.5506
66.4395	-315.6400	-0.5503
66.5407	-315.6400	-0.5504
66.6413	-315.6400	-0.5524
66.7414	-315.6400	-0.5493
66.8422	-315.6400	-0.5507
66.9431	-315.6400	-0.5504
67.0422	-315.6400	-0.5506
67.1424	-315.6400	-0.5505
67.2426	-315.6400	-0.5492
67.3425	-315.6400	-0.5485
67.4422	-315.6400	-0.5510
67.5427	-315.6400	-0.5494
67.6424	-315.6400	-0.5503
67.7430	-315.6400	-0.5477
67.8422	-315.6400	-0.5491
67.9434	-315.6400	-0.5479
68.0440	-315.6400	-0.5478
68.1437	-315.6400	-0.5481
68.2444	-315.6400	-0.5474
68.3460	-315.6400	-0.5473
68.4459	-315.6400	-0.5493
68.5457	-315.6400	-0.5488
68.6452	-315.6400	-0.5486
68.7462	-315.6400	-0.5462
68.8469	-315.6400	-0.5503
68.9462	-315.6400	-0.5475
69.0472	-315.6400	-0.5496
69.1480	-315.6400	-0.5477
69.2472	-315.6400	-0.5471
69.3483	-315.6400	-0.5473
69.4483	-315.6400	-0.5473
69.5485	-315.6400	-0.5452
69.6483	-315.6400	-0.5482
69.7482	-315.6400	-0.5464
69.8498	-315.6400	-0.5465
69.9502	-315.6400	-0.5429
70.0502	-315.6400	-0.5435
70.1510	-315.6400	-0.5461
70.2520	-315.6400	-0.5437
70.3521	-315.6400	-0.5429
70.4521	-315.6400	-0.5440
70.5519	-315.6400	-0.5428
70.6517	-315.6400	-0.5441
70.7522	-315.6400	-0.5425
70.8530	-315.6400	-0.5421
70.9528	-315.6400	-0.5435
71.0530	-315.6400	-0.5409
71.1523	-315.6400	-0.5412
71.2527	-315.6400	-0.5406
71.3526	-315.6400	-0.5418
71.4523	-315.6400	-0.5406
71.5524	-315.6400	-0.5406
71.6532	-315.6400	-0.5401
71.7539	-315.6400	-0.5402
71.8533	-315.6400	-0.5406
71.9544	-315.6400	-0.5386
72.0545	-315.6400	-0.5404
72.1543	-315.6400	-0.5409
72.2543	-315.6400	-0.5400
72.3545	-315.6400	-0.5397
72.4550	-315.6400	-0.5436
72.5546	-315.6400	-0.5415
72.6545	-315.6400	-0.5410
72.7545	-315.6400	-0.5424
72.8559	-315.6400	-0.5431
72.9566	-315.6400	-0.5432
73.0566	-315.6400	-0.5411
73.1568	-315.6400	-0.5395
73.2572	-315.6400	-0.5404
73.3577	-315.6400	-0.5407
73.4580	-315.6400	-0.5386
73.5572	-315.6400	-0.5390
73.6573	-315.6400	-0.5393
73.7587	-315.6400	-0.5394
73.8585	-315.6400	-0.5425
73.9585	-315.6400	-0.5398
74.0592	-315.6400	-0.5414
74.1592	-315.6400	-0.5392
74.2598	-315.6400	-0.5395
74.3593	-315.6400	-0.5430
74.4601	-315.6400	-0.5399
74.5599	-315.6400	-0.5403
74.6596	-315.6400	-0.5387
74.7606	-315.6400	-0.5400
74.8603	-315.6400	-0.5371
74.9603	-315.6400	-0.5381
75.0605	-315.6400	-0.5402
75.1624	-315.6400	-0.5390
75.2623	-315.6400	-0.5391
75.3623	-315.6400	-0.5375
75.4626	-315.6400	-0.5378
75.5634	-315.6400	-0.5388
75.6637	-315.6400	-0.5354
75.7632	-315.6400	-0.5398
75.8644	-315.6400	-0.5391
75.9644	-315.6400	-0.5383
76.0643	-315.6400	-0.5372
76.1644	-315.6400	-0.5372
76.2645	-315.6400	-0.5378
76.3645	-315.6400	-0.5350
76.4642	-315.6400	-0.5366
76.5643	-315.6400	-0.5360
76.6645	-315.6400	-0.5381
76.7653	-315.6400	-0.5361
76.8652	-315.6400	-0.5338
76.9660	-315.6400	-0.5376
77.0666	-315.6400	-0.5367
77.1670	-315.6400	-0.5382
77.2669	-315.6400	-0.5356
77.3668	-315.6400	-0.5361
77.4670	-315.6400	-0.5321
77.5670	-315.6400	-0.5330
77.6667	-315.6400	-0.5345
77.7665	-315.6400	-0.5322
77.8668	-315.6400	-0.5328
77.9682	-315.6400	-0.5346
78.0673	-315.6400	-0.5325
78.1681	-315.6400	-0.5353
78.2678	-315.6400	-0.5327
78.3684	-315.6400	-0.5339
78.4687	-315.6400	-0.5312
78.5688	-315.6400	-0.5324
78.6686	-315.6400	-0.5314
78.7685	-315.6400	-0.5300
78.8692	-315.6400	-0.5317
78.9689	-315.6400	-0.5298
79.0689	-315.6400	-0.5307
79.1691	-315.6400	-0.5334
79.2693	-315.6400	-0.5318
79.3702	-315.6400	-0.5302
79.4696	-315.6400	-0.5304
79.5699	-315.6400	-0.5297
79.6693	-315.6400	-0.5312
79.7693	-315.6400	-0.5299
79.8693	-315.6400	-0.5282
79.9703	-315.6400	-0.5268
80.0706	-315.6400	-0.5278
80.1710	-315.6400	-0.5308
80.2705	-315.6400	-0.5306
80.3706	-315.6400	-0.5326
80.4705	-315.6400	-0.5304
80.5708	-315.6400	-0.5296
80.6712	-315.6400	-0.5295
80.7703	-315.6400	-0.5275
80.8710	-315.6400	-0.5275
80.9714	-315.6400	-0.5256
81.0722	-315.6400	-0.5276
81.1730	-315.6400	-0.5267
81.2725	-315.6400	-0.5291
81.3731	-315.6400	-0.5316
81.4724	-315.6400	-0.5308
81.5742	-315.6400	-0.5292
81.6744	-315.6400	-0.5318
81.7739	-315.6400	-0.5281
81.8734	-315.6400	-0.5281
81.9733	-315.6400	-0.5285
82.0735	-315.6400	-0.5278
82.1741	-315.6400	-0.5293
82.2734	-315.6400	-0.5269
82.3751	-315.6400	-0.5290
82.4753	-315.6400	-0.5304
82.5755	-315.6400	-0.5304
82.6754	-315.6400	-0.5296
82.7753	-315.6400	-0.5306
82.8756	-315.6400	-0.5276
82.9765	-315.6400	-0.5292
83.0767	-315.6400	-0.5275
83.1770	-315.6400	-0.5291
83.2769	-315.6400	-0.5294
83.3778	-315.6400	-0.5262
83.4782	-315.6400	-0.5275
83.5785	-315.6400	-0.5300
83.6793	-315.6400	-0.5288
83.7795	-315.6400	-0.5279
83.8799	-315.6400	-0.5305
83.9802	-315.6400	-0.5291
84.0793	-315.6400	-0.5284
84.1801	-315.6400	-0.5296
84.2798	-315.6400	-0.5282
84.3799	-315.6400	-0.5295
84.4804	-315.6400	-0.5269
84.5808	-315.6400	-0.5268
84.6813	-315.6400	-0.5264
84.7814	-315.6400	-0.5280
84.8815	-315.6400	-0.5276
84.9817	-315.6400	-0.5240
85.0821	-315.6400	-0.5257
85.1814	-315.6400	-0.5240
85.2818	-315.6400	-0.5272
85.3822	-315.6400	-0.5252
85.4814	-315.6400	-0.5275
85.5818	-315.6400	-0.5236
85.6813	-315.6400	-0.5240
85.7822	-315.6400	-0.5225
85.8822	-315.6400	-0.5242
85.9823	-315.6400	-0.5247
86.0828	-315.6400	-0.5234
86.1828	-315.6400	-0.5220
86.2839	-315.6400	-0.5226
86.3833	-315.6400	-0.5223
86.4838	-315.6400	-0.5223
86.5836	-315.6400	-0.5230
86.6841	-315.6400	-0.5238
86.7841	-315.6400	-0.5250
86.8835	-315.6400	-0.5259
86.9843	-315.6400	-0.5251
87.0838	-315.6400	-0.5264
87.1837	-315.6400	-0.5242
87.2834	-315.6400	-0.5216
87.3836	-315.6400	-0.5244
87.4840	-315.6400	-0.5208
87.5839	-315.6400	-0.5223
87.6844	-315.6400	-0.5188
87.7848	-315.6400	-0.5224
87.8844	-315.6400	-0.5209
87.9844	-315.6400	-0.5212
88.0844	-315.6400	-0.5189
88.1856	-315.6400	-0.5187
88.2863	-315.6400	-0.5206
88.3854	-315.6400	-0.5196
88.4854	-315.6400	-0.5220
88.5857	-315.6400	-0.5205
88.6855	-315.6400	-0.5215
88.7854	-315.6400	-0.5198
88.8854	-315.6400	-0.5182
88.9856	-315.6400	-0.5194
89.0860	-315.6400	-0.5197
89.1854	-315.6400	-0.5210
89.2864	-315.6400	-0.5198
89.3870	-315.6400	-0.5197
89.4869	-315.6400	-0.5210
89.5868	-315.6400	-0.5200
89.6871	-315.6400	-0.5192
89.7867	-315.6400	-0.5175
89.8866	-315.6400	-0.5189
89.9871	-315.6400	-0.5190
90.0882	-315.6400	-0.5184
90.1881	-315.6400	-0.5201
90.2883	-315.6400	-0.5188
90.3882	-315.6400	-0.5177
90.4885	-315.6400	-0.5176
90.5890	-315.6400	-0.5175
90.6890	-315.6400	-0.5201
90.7888	-315.6400	-0.5183
90.8885	-315.6400	-0.5208
90.9886	-315.6400	-0.5208
91.0894	-315.6400	-0.5195
91.1906	-315.6400	-0.5199
91.2915	-315.6400	-0.5188
91.3917	-315.6400	-0.5204
91.4918	-315.6400	-0.5178
91.5919	-315.6400	-0.5174
91.6922	-315.6400	-0.5169
91.7914	-315.6400	-0.5163
91.8918	-315.6400	-0.5145
91.9914	-315.6400	-0.5179
92.0918	-315.6400	-0.5156
92.1921	-315.6400	-0.5148
92.2924	-315.6400	-0.5160
92.3939	-315.6400	-0.5140
92.4938	-315.6400	-0.5138
92.5936	-315.6400	-0.5148
92.6955	-315.6400	-0.5136
92.7957	-315.6400	-0.5153
92.8968	-315.6400	-0.5134
92.9967	-315.6400	-0.5156
93.0979	-315.6400	-0.5136
93.1974	-315.6400	-0.5135
93.2989	-315.6400	-0.5160
93.3995	-315.6400	-0.5133
93.5000	-315.6400	-0.5152
93.6002	-315.6400	-0.5168
93.7007	-315.6400	-0.5121
93.8015	-315.6400	-0.5151
93.9016	-315.6400	-0.5148
94.0018	-315.6400	-0.5170
94.1016	-315.6400	-0.5145
94.2025	-315.6400	-0.5164
94.3025	-315.6400	-0.5148
94.4025	-315.6400	-0.5161
94.5038	-315.6400	-0.5155
94.6042	-315.6400	-0.5123
94.7041	-315.6400	-0.5137
94.8040	-315.6400	-0.5139
94.9040	-315.6400	-0.5126
95.0039	-315.6400	-0.5107
95.1040	-315.6400	-0.5124
95.2037	-315.6400	-0.5112
95.3036	-315.6400	-0.5122
95.4039	-315.6400	-0.5100
95.5048	-315.6400	-0.5080
95.6044	-315.6400	-0.5107
95.7067	-315.6400	-0.5106
95.8063	-315.6400	-0.5114
95.9073	-315.6400	-0.5116
96.0072	-315.6400	-0.5133
96.1079	-315.6400	-0.5132
96.2077	-315.6400	-0.5139
96.3088	-315.6400	-0.5134
96.4104	-315.6400	-0.5138
96.5105	-315.6400	-0.5127
96.6106	-315.6400	-0.5110
96.7108	-315.6400	-0.5129
96.8105	-315.6400	-0.5099
96.9112	-315.6400	-0.5098
97.0113	-315.6400	-0.5113
97.1106	-315.6400	-0.5106
97.2109	-315.6400	-0.5113
97.3106	-315.6400	-0.5108
97.4104	-315.6400	-0.5122
97.5110	-315.6400	-0.5151
97.6105	-315.6400	-0.5121
97.7106	-315.6400	-0.5140
97.8108	-315.6400	-0.5119
97.9110	-315.6400	-0.5134
98.0108	-315.6400	-0.5110
98.1104	-315.6400	-0.5092
98.2105	-315.6400	-0.5110
98.3106	-315.6400	-0.5088
98.4115	-315.6400	-0.5104
98.5124	-315.6400	-0.5096
98.6129	-315.6400	-0.5117
98.7129	-315.6400	-0.5084
98.8131	-315.6400	-0.5085
98.9127	-315.6400	-0.5050
99.0132	-315.6400	-0.5074
99.1124	-315.6400	-0.5063
99.2127	-315.6400	-0.5061
99.3130	-315.6400	-0.5068
99.4127	-315.6400	-0.5064
99.5125	-315.6400	-0.5065
99.6141	-315.6400	-0.5072
99.7138	-315.6400	-0.5082
99.8137	-315.6400	-0.5078
99.9139	-315.6400	-0.5076
100.0135	-315.6400	-0.5061
100.1143	-315.6400	-0.5057
100.2139	-315.6400	-0.5064
100.3149	-315.6400	-0.5060
100.4148	-315.6400	-0.5065
100.5144	-315.6400	-0.5056
100.6145	-315.6400	-0.5069
100.7154	-315.6400	-0.5070
100.8155	-315.6400	-0.5054
100.9155	-315.6400	-0.5055
101.0160	-315.6400	-0.5071
101.1169	-315.6400	-0.5068
101.2167	-315.6400	-0.5050
101.3183	-315.6400	-0.5051
101.4181	-315.6400	-0.5071
101.5178	-315.6400	-0.5070
101.6178	-315.6400	-0.5059
101.7180	-315.6400	-0.5081
101.8175	-315.6400	-0.5078
101.9189	-315.6400	-0.5063
102.0191	-315.6400	-0.5066
102.1199	-315.6400	-0.5049
102.2203	-315.6400	-0.5059
102.3203	-315.6400	-0.5065
102.4197	-315.6400	-0.5062
102.5200	-315.6400	-0.5043
102.6202	-315.6400	-0.5067
102.7202	-315.6400	-0.5064
102.8201	-315.6400	-0.5055
102.9197	-315.6400	-0.5075
103.0206	-315.6400	-0.5074
103.1211	-315.6400	-0.5072
103.2218	-315.6400	-0.5074
103.3219	-315.6400	-0.5077
103.4217	-315.6400	-0.5075
103.5215	-315.6400	-0.5061
103.6224	-315.6400	-0.5054
103.7217	-315.6400	-0.5035
103.8221	-315.6400	-0.5038
103.9227	-315.6400	-0.5032
104.0228	-315.6400	-0.5030
104.1234	-315.6400	-0.5039
104.2227	-315.6400	-0.5033
104.3235	-315.6400	-0.5043
104.4239	-315.6400	-0.5043
104.5242	-315.6400	-0.5050
104.6238	-315.6400	-0.5048
104.7243	-315.6400	-0.5071
104.8242	-315.6400	-0.5038
104.9244	-315.6400	-0.5046
105.0235	-315.6400	-0.5021
105.1241	-315.6400	-0.5032
105.2240	-315.6400	-0.5027
105.3240	-315.6400	-0.5032
105.4243	-315.6400	-0.5077
105.5243	-315.6400	-0.5046
105.6244	-315.6400	-0.5050
105.7239	-315.6400	-0.5032
105.8240	-315.6400	-0.5048
105.9236	-315.6400	-0.5031
106.0238	-315.6400	-0.5049
106.1244	-315.6400	-0.5028
106.2245	-315.6400	-0.5028
106.3248	-315.6400	-0.5020
106.4246	-315.6400	-0.5028
106.5248	-315.6400	-0.5047
106.6247	-315.6400	-0.5042
106.7264	-315.6400	-0.5025
106.8263	-315.6400	-0.5033
106.9255	-315.6400	-0.5055
107.0258	-315.6400	-0.5063
107.1256	-315.6400	-0.5035
107.2268	-315.6400	-0.5018
107.3270	-315.6400	-0.5032
107.4266	-315.6400	-0.5024
107.5274	-315.6400	-0.5035
107.6278	-315.6400	-0.5014
107.7295	-315.6400	-0.5030
107.8287	-315.6400	-0.5052
107.9292	-315.6400	-0.5024
108.0293	-315.6400	-0.5014
108.1293	-315.6400	-0.5034
108.2291	-315.6400	-0.5023
108.3287	-315.6400	-0.4985
108.4285	-315.6400	-0.4996
108.5291	-315.6400	-0.5017
108.6287	-315.6400	-0.5005
108.7288	-315.6400	-0.4984
108.8291	-315.6400	-0.5012
108.9293	-315.6400	-0.5013
109.0297	-315.6400	-0.4984
109.1308	-315.6400	-0.4998
109.2307	-315.6400	-0.4989
109.3305	-315.6400	-0.5012
109.4322	-315.6400	-0.4987
109.5334	-315.6400	-0.4995
109.6332	-315.6400	-0.5015
109.7325	-315.6400	-0.5025
109.8334	-315.6400	-0.5033
109.9333	-315.6400	-0.5011
110.0333	-315.6400	-0.5029
110.1328	-315.6400	-0.5032
110.2330	-315.6400	-0.5017
110.3333	-315.6400	-0.5027
110.4334	-315.6400	-0.5016
110.5333	-315.6400	-0.5018
110.6332	-315.6400	-0.5018
110.7330	-315.6400	-0.5032
110.8337	-315.6400	-0.5025
110.9338	-315.6400	-0.5012
111.0337	-315.6400	-0.5022
111.1341	-315.6400	-0.5013
111.2340	-315.6400	-0.5009
111.3342	-315.6400	-0.5014
111.4342	-315.6400	-0.4989
111.5348	-315.6400	-0.5001
111.6351	-315.6400	-0.5003
111.7349	-315.6400	-0.4986
111.8357	-315.6400	-0.4960
111.9358	-315.6400	-0.4964
112.0363	-315.6400	-0.4973
112.1361	-315.6400	-0.4979
112.2356	-315.6400	-0.4968
112.3356	-315.6400	-0.4977
112.4370	-315.6400	-0.4994
112.5366	-315.6400	-0.4970
112.6372	-315.6400	-0.4960
112.7369	-315.6400	-0.4967
112.8373	-315.6400	-0.4961
112.9379	-315.6400	-0.4974
113.0384	-315.6400	-0.4955
113.1385	-315.6400	-0.4978
113.2376	-315.6400	-0.4961
113.3396	-315.6400	-0.4973
113.4399	-315.6400	-0.4949
113.5409	-315.6400	-0.4990
113.6406	-315.6400	-0.4974
113.7414	-315.6400	-0.4971
113.8417	-315.6400	-0.4961
113.9424	-315.6400	-0.4980
114.0418	-315.6400	-0.4982
114.1423	-315.6400	-0.4952
114.2420	-315.6400	-0.4967
114.3423	-315.6400	-0.4962
114.4416	-315.6400	-0.4972
114.5416	-315.6400	-0.4970
114.6416	-315.6400	-0.4965
114.7418	-315.6400	-0.4990
114.8445	-315.6400	-0.4947
114.9440	-315.6400	-0.4961
115.0436	-315.6400	-0.4953
115.1439	-315.6400	-0.4967
115.2443	-315.6400	-0.4934
115.3440	-315.6400	-0.4958
115.4454	-315.6400	-0.4960
115.5450	-315.6400	-0.4961
115.6456	-315.6400	-0.4961
115.7456	-315.6400	-0.4951
115.8456	-315.6400	-0.4942
115.9470	-315.6400	-0.4948
116.0470	-315.6400	-0.4940
116.1466	-315.6400	-0.4954
116.2466	-315.6400	-0.4952
116.3470	-315.6400	-0.4941
116.4473	-315.6400	-0.4922
116.5467	-315.6400	-0.4943
116.6471	-315.6400	-0.4927
116.7473	-315.6400	-0.4931
116.8473	-315.6400	-0.4956
116.9473	-315.6400	-0.4919
117.0474	-315.6400	-0.4966
117.1470	-315.6400	-0.4922
117.2474	-315.6400	-0.4963
117.3473	-315.6400	-0.4953
117.4470	-315.6400	-0.4961
117.5470	-315.6400	-0.4951
117.6467	-315.6400	-0.4964
117.7474	-315.6400	-0.4944
117.8481	-315.6400	-0.4956
117.9476	-315.6400	-0.4917
118.0481	-315.6400	-0.4921
118.1486	-315.6400	-0.4923
118.2491	-315.6400	-0.4912
118.3490	-315.6400	-0.4915
118.4489	-315.6400	-0.4918
118.5488	-315.6400	-0.4952
118.6490	-315.6400	-0.4947
118.7492	-315.6400	-0.4943
118.8488	-315.6400	-0.4941
118.9501	-315.6400	-0.4953
119.0502	-315.6400	-0.4954
119.1511	-315.6400	-0.4937
119.2511	-315.6400	-0.4928
119.3516	-315.6400	-0.4944
119.4524	-315.6400	-0.4918
119.5520	-315.6400	-0.4899
119.6521	-315.6400	-0.4937
119.7517	-315.6400	-0.4911
119.8529	-315.6400	-0.4906
119.9529	-315.6400	-0.4926
120.0526	-315.6400	-0.4913
120.1526	-315.6400	-0.4946
120.2527	-315.6400	-0.4955
120.3534	-315.6400	-0.4932
120.4528	-315.6400	-0.4952
120.5536	-315.6400	-0.4912
120.6528	-315.6400	-0.4922
120.7528	-315.6400	-0.4926
120.8528	-315.6400	-0.4924
120.9544	-315.6400	-0.4922
121.0549	-315.6400	-0.4923
121.1564	-315.6400	-0.4939
121.2576	-315.6400	-0.4936
121.3571	-315.6400	-0.4933
121.4568	-315.6400	-0.4933
121.5567	-315.6400	-0.4937
121.6567	-315.6400	-0.4933
121.7569	-315.6400	-0.4904
121.8568	-315.6400	-0.4916
121.9567	-315.6400	-0.4952
122.0571	-315.6400	-0.4931
122.1572	-315.6400	-0.4927
122.2570	-315.6400	-0.4914
122.3570	-315.6400	-0.4919
122.4573	-315.6400	-0.4914
122.5584	-315.6400	-0.4899
122.6577	-315.6400	-0.4909
122.7577	-315.6400	-0.4894
122.8581	-315.6400	-0.4920
122.9577	-315.6400	-0.4897
123.0580	-315.6400	-0.4924
123.1579	-315.6400	-0.4905
123.2585	-315.6400	-0.4903
123.3583	-315.6400	-0.4905
123.4584	-315.6400	-0.4884
123.5585	-315.6400	-0.4917
123.6578	-315.6400	-0.4911
123.7578	-315.6400	-0.4882
123.8581	-315.6400	-0.4925
123.9578	-315.6400	-0.4916
124.0582	-315.6400	-0.4893
124.1579	-315.6400	-0.4904
124.2592	-315.6400	-0.4900
124.3595	-315.6400	-0.4903
124.4589	-315.6400	-0.4888
124.5597	-315.6400	-0.4877
124.6607	-315.6400	-0.4912
124.7619	-315.6400	-0.4905
124.8628	-315.6400	-0.4904
124.9628	-315.6400	-0.4909
125.0630	-315.6400	-0.4905
125.1638	-315.6400	-0.4907
125.2652	-315.6400	-0.4881
125.3650	-315.6400	-0.4885
125.4650	-315.6400	-0.4896
125.5648	-315.6400	-0.4892
125.6650	-315.6400	-0.4887
125.7662	-315.6400	-0.4916
125.8662	-315.6400	-0.4903
125.9666	-315.6400	-0.4910
126.0660	-315.6400	-0.4899
126.1675	-315.6400	-0.4919
126.2679	-315.6400	-0.4898
126.3680	-315.6400	-0.4896
126.4686	-315.6400	-0.4894
126.5678	-315.6400	-0.4909
126.6686	-315.6400	-0.4895
126.7694	-315.6400	-0.4874
126.8701	-315.6400	-0.4898
126.9698	-315.6400	-0.4885
127.0704	-315.6400	-0.4880
127.1708	-315.6400	-0.4850
127.2724	-315.6400	-0.4867
127.3724	-315.6400	-0.4849
127.4722	-315.6400	-0.4847
127.5737	-315.6400	-0.4850
127.6739	-315.6400	-0.4869
127.7740	-315.6400	-0.4868
127.8756	-315.6400	-0.4874
127.9752	-315.6400	-0.4870
128.0759	-315.6400	-0.4889
128.1777	-315.6400	-0.4876
128.2796	-315.6400	-0.4867
128.3798	-315.6400	-0.4858
128.4806	-315.6400	-0.4864
128.5806	-315.6400	-0.4872
128.6827	-315.6400	-0.4864
128.7819	-315.6400	-0.4853
128.8825	-315.6400	-0.4883
128.9821	-315.6400	-0.4875
129.0833	-315.6400	-0.4868
129.1829	-315.6400	-0.4886
129.2829	-315.6400	-0.4863
129.3831	-315.6400	-0.4867
129.4832	-315.6400	-0.4832
129.5834	-315.6400	-0.4867
129.6828	-315.6400	-0.4866
129.7830	-315.6400	-0.4856
129.8838	-315.6400	-0.4868
129.9844	-315.6400	-0.4885
130.0837	-315.6400	-0.4864
130.1846	-315.6400	-0.4865
130.2842	-315.6400	-0.4860
130.3842	-315.6400	-0.4858
130.4849	-315.6400	-0.4871
130.5852	-315.6400	-0.4872
130.6848	-315.6400	-0.4875
130.7848	-315.6400	-0.4887
130.8857	-315.6400	-0.4863
130.9853	-315.6400	-0.4859
131.0856	-315.6400	-0.4849
131.1849	-315.6400	-0.4850
131.2847	-315.6400	-0.4871
131.3850	-315.6400	-0.4841
131.4850	-315.6400	-0.4882
131.5848	-315.6400	-0.4854
131.6849	-315.6400	-0.4859
131.7849	-315.6400	-0.4851
131.8850	-315.6400	-0.4855
131.9850	-315.6400	-0.4873
132.0851	-315.6400	-0.4861
132.1851	-315.6400	-0.4848
132.2851	-315.6400	-0.4867
132.3849	-315.6400	-0.4854
132.4851	-315.6400	-0.4856
132.5851	-315.6400	-0.4852
132.6851	-315.6400	-0.4838
132.7848	-315.6400	-0.4866
132.8851	-315.6400	-0.4828
132.9850	-315.6400	-0.4843
133.0851	-315.6400	-0.4837
133.1855	-315.6400	-0.4849
133.2848	-315.6400	-0.4827
133.3855	-315.6400	-0.4828
133.4848	-315.6400	-0.4837
133.5867	-315.6400	-0.4826
133.6869	-315.6400	-0.4817
133.7880	-315.6400	-0.4831
133.8882	-315.6400	-0.4821
133.9885	-315.6400	-0.4814
134.0889	-315.6400	-0.4821
134.1895	-315.6400	-0.4825
134.2891	-315.6400	-0.4831
134.3897	-315.6400	-0.4824
134.4895	-315.6400	-0.4821
134.5891	-315.6400	-0.4836
134.6889	-315.6400	-0.4820
134.7890	-315.6400	-0.4803
134.8907	-315.6400	-0.4818
134.9904	-315.6400	-0.4822
135.0917	-315.6400	-0.4818
135.1909	-315.6400	-0.4806
135.2908	-315.6400	-0.4805
135.3915	-315.6400	-0.4815
135.4912	-315.6400	-0.4804
135.5908	-315.6400	-0.4816
135.6929	-315.6400	-0.4820
135.7937	-315.6400	-0.4812
135.8942	-315.6400	-0.4804
135.9943	-315.6400	-0.4796
136.0951	-315.6400	-0.4815
136.1962	-315.6400	-0.4810
136.2978	-315.6400	-0.4802
136.3988	-315.6400	-0.4811
136.4996	-315.6400	-0.4805
136.5998	-315.6400	-0.4835
136.6990	-315.6400	-0.4798
136.7994	-315.6400	-0.4817
136.9001	-315.6400	-0.4813
137.0003	-315.6400	-0.4821
137.1008	-315.6400	-0.4818
137.2016	-315.6400	-0.4808
137.3012	-315.6400	-0.4817
137.4008	-315.6400	-0.4807
137.5017	-315.6400	-0.4817
137.6012	-315.6400	-0.4814
137.7010	-315.6400	-0.4831
137.8028	-315.6400	-0.4788
137.9018	-315.6400	-0.4788
138.0018	-315.6400	-0.4808
138.1021	-315.6400	-0.4797
138.2024	-315.6400	-0.4805
138.3026	-315.6400	-0.4784
138.4018	-315.6400	-0.4813
138.5019	-315.6400	-0.4805
138.6018	-315.6400	-0.4795
138.7025	-315.6400	-0.4772
138.8022	-315.6400	-0.4786
138.9019	-315.6400	-0.4805
139.0026	-315.6400	-0.4769
139.1029	-315.6400	-0.4800
139.2037	-315.6400	-0.4784
139.3038	-315.6400	-0.4771
139.4037	-315.6400	-0.4732
139.5029	-315.6400	-0.4769
139.6033	-315.6400	-0.4780
139.7034	-315.6400	-0.4771
139.8033	-315.6400	-0.4768
139.9033	-315.6400	-0.4781
140.0038	-315.6400	-0.4788
140.1039	-315.6400	-0.4775
140.2047	-315.6400	-0.4770
140.3041	-315.6400	-0.4780
140.4040	-315.6400	-0.4802
140.5048	-315.6400	-0.4800
140.6038	-315.6400	-0.4782
140.7045	-315.6400	-0.4779
140.8044	-315.6400	-0.4800
140.9069	-315.6400	-0.4791
141.0052	-315.6400	-0.4802
141.1051	-315.6400	-0.4780
141.2052	-315.6400	-0.4782
141.3061	-315.6400	-0.4773
141.4061	-315.6400	-0.4801
141.5069	-315.6400	-0.4776
141.6073	-315.6400	-0.4773
141.7074	-315.6400	-0.4773
141.8081	-315.6400	-0.4789
141.9087	-315.6400	-0.4784
142.0087	-315.6400	-0.4767
142.1087	-315.6400	-0.4776
142.2085	-315.6400	-0.4778
142.3079	-315.6400	-0.4782
142.4090	-315.6400	-0.4745
142.5093	-315.6400	-0.4765
142.6100	-315.6400	-0.4761
142.7110	-315.6400	-0.4760
142.8109	-315.6400	-0.4769
142.9113	-315.6400	-0.4768
143.0125	-315.6400	-0.4807
143.1130	-315.6400	-0.4769
143.2131	-315.6400	-0.4795
143.3129	-315.6400	-0.4761
143.4148	-315.6400	-0.4773
143.5148	-315.6400	-0.4757
143.6146	-315.6400	-0.4738
143.7158	-315.6400	-0.4761
143.8148	-315.6400	-0.4754
143.9156	-315.6400	-0.4756
144.0153	-315.6400	-0.4765
144.1157	-315.6400	-0.4771
144.2168	-315.6400	-0.4758
144.3172	-315.6400	-0.4737
144.4171	-315.6400	-0.4759
144.5187	-315.6400	-0.4737
144.6180	-315.6400	-0.4748
144.7188	-315.6400	-0.4729
144.8182	-315.6400	-0.4729
144.9190	-315.6400	-0.4715
145.0197	-315.6400	-0.4709
145.1197	-315.6400	-0.4717
145.2192	-315.6400	-0.4727
145.3200	-315.6400	-0.4752
145.4200	-315.6400	-0.4730
145.5206	-315.6400	-0.4704
145.6201	-315.6400	-0.4736
145.7201	-315.6400	-0.4719
145.8204	-315.6400	-0.4718
145.9199	-315.6400	-0.4740
146.0208	-315.6400	-0.4751
146.1211	-315.6400	-0.4740
146.2215	-315.6400	-0.4720
146.3211	-315.6400	-0.4732
146.4217	-315.6400	-0.4734
146.5215	-315.6400	-0.4716
146.6210	-315.6400	-0.4727
146.7220	-315.6400	-0.4721
146.8230	-315.6400	-0.4722
146.9237	-315.6400	-0.4719
147.0234	-315.6400	-0.4743
147.1247	-315.6400	-0.4723
147.2239	-315.6400	-0.4727
147.3250	-315.6400	-0.4729
147.4251	-315.6400	-0.4734
147.5252	-315.6400	-0.4742
147.6253	-315.6400	-0.4753
147.7252	-315.6400	-0.4736
147.8255	-315.6400	-0.4746
147.9252	-315.6400	-0.4721
148.0252	-315.6400	-0.4732
148.1249	-315.6400	-0.4720
148.2250	-315.6400	-0.4735
148.3249	-315.6400	-0.4754
148.4252	-315.6400	-0.4727
148.5254	-315.6400	-0.4751
148.6252	-315.6400	-0.4729
148.7253	-315.6400	-0.4725
148.8263	-315.6400	-0.4747
148.9260	-315.6400	-0.4730
149.0271	-315.6400	-0.4738
149.1277	-315.6400	-0.4726
149.2284	-315.6400	-0.4723
149.3281	-315.6400	-0.4703
149.4294	-315.6400	-0.4738
149.5308	-315.6400	-0.4729
149.6315	-315.6400	-0.4740
149.7314	-315.6400	-0.4719
149.8338	-315.6400	-0.4725
149.9324	-315.6400	-0.4735
150.0324	-315.6400	-0.4717
150.1323	-315.6400	-0.4730
150.2329	-315.6400	-0.4713
150.3334	-315.6400	-0.4724
150.4331	-315.6400	-0.4719
150.5331	-315.6400	-0.4710
150.6350	-315.6400	-0.4717
150.7352	-315.6400	-0.4713
150.8349	-315.6400	-0.4702
150.9367	-315.6400	-0.4718
151.0361	-315.6400	-0.4708
151.1378	-315.6400	-0.4702
151.2371	-315.6400	-0.4697
151.3376	-315.6400	-0.4708
151.4369	-315.6400	-0.4716
151.5373	-315.6400	-0.4719
151.6379	-315.6400	-0.4705
151.7376	-315.6400	-0.4685
151.8377	-315.6400	-0.4709
151.9386	-315.6400	-0.4690
152.0379	-315.6400	-0.4710
152.1390	-315.6400	-0.4725
152.2386	-315.6400	-0.4707
152.3381	-315.6400	-0.4714
152.4389	-315.6400	-0.4710
152.5390	-315.6400	-0.4715
152.6399	-315.6400	-0.4721
152.7392	-315.6400	-0.4694
152.8401	-315.6400	-0.4720
152.9404	-315.6400	-0.4710
153.0405	-315.6400	-0.4688
153.1413	-315.6400	-0.4690
153.2411	-315.6400	-0.4710
153.3411	-315.6400	-0.4694
153.4416	-315.6400	-0.4694
153.5419	-315.6400	-0.4686
153.6415	-315.6400	-0.4676
153.7419	-315.6400	-0.4697
153.8414	-315.6400	-0.4694
153.9414	-315.6400	-0.4678
154.0416	-315.6400	-0.4685
154.1419	-315.6400	-0.4678
154.2417	-315.6400	-0.4676
154.3413	-315.6400	-0.4684
154.4414	-315.6400	-0.4687
154.5411	-315.6400	-0.4713
154.6412	-315.6400	-0.4689
154.7415	-315.6400	-0.4662
154.8413	-315.6400	-0.4719
154.9419	-315.6400	-0.4704
155.0413	-315.6400	-0.4732
155.1415	-315.6400	-0.4721
155.2410	-315.6400	-0.4706
155.3417	-315.6400	-0.4722
155.4421	-315.6400	-0.4712
155.5421	-315.6400	-0.4694
155.6438	-315.6400	-0.4712
155.7435	-315.6400	-0.4711
155.8434	-315.6400	-0.4693
155.9431	-315.6400	-0.4699
156.0450	-315.6400	-0.4698
156.1460	-315.6400	-0.4702
156.2470	-315.6400	-0.4691
156.3470	-315.6400	-0.4718
156.4474	-315.6400	-0.4691
156.5475	-315.6400	-0.4721
156.6477	-315.6400	-0.4714
156.7476	-315.6400	-0.4728
156.8477	-315.6400	-0.4725
156.9477	-315.6400	-0.4731
157.0472	-315.6400	-0.4705
157.1474	-315.6400	-0.4714
157.2471	-315.6400	-0.4723
157.3479	-315.6400	-0.4706
157.4498	-315.6400	-0.4708
157.5484	-315.6400	-0.4705
157.6482	-315.6400	-0.4705
157.7480	-315.6400	-0.4679
157.8491	-315.6400	-0.4699
157.9494	-315.6400	-0.4668
158.0491	-315.6400	-0.4683
158.1501	-315.6400	-0.4687
158.2511	-315.6400	-0.4662
158.3506	-315.6400	-0.4665
158.4519	-315.6400	-0.4688
158.5515	-315.6400	-0.4677
158.6518	-315.6400	-0.4665
158.7513	-315.6400	-0.4703
158.8530	-315.6400	-0.4666
158.9527	-315.6400	-0.4693
159.0522	-315.6400	-0.4671
159.1527	-315.6400	-0.4678
159.2531	-315.6400	-0.4688
159.3540	-315.6400	-0.4670
159.4535	-315.6400	-0.4697
159.5537	-315.6400	-0.4697
159.6548	-315.6400	-0.4693
159.7544	-315.6400	-0.4679
159.8541	-315.6400	-0.4682
159.9552	-315.6400	-0.4704
160.0551	-315.6400	-0.4662
160.1551	-315.6400	-0.4672
160.2553	-315.6400	-0.4688
160.3550	-315.6400	-0.4654
160.4553	-315.6400	-0.4676
160.5556	-315.6400	-0.4664
160.6553	-315.6400	-0.4669
160.7554	-315.6400	-0.4661
160.8553	-315.6400	-0.4655
160.9554	-315.6400	-0.4666
161.0553	-315.6400	-0.4664
161.1562	-315.6400	-0.4668
161.2570	-315.6400	-0.4669
161.3578	-315.6400	-0.4647
161.4577	-315.6400	-0.4655
161.5571	-315.6400	-0.4657
161.6578	-315.6400	-0.4643
161.7576	-315.6400	-0.4660
161.8572	-315.6400	-0.4634
161.9574	-315.6400	-0.4647
162.0571	-315.6400	-0.4645
162.1572	-315.6400	-0.4644
162.2579	-315.6400	-0.4616
162.3578	-315.6400	-0.4640
162.4579	-315.6400	-0.4629
162.5574	-315.6400	-0.4620
162.6576	-315.6400	-0.4633
162.7574	-315.6400	-0.4632
162.8571	-315.6400	-0.4615
162.9572	-315.6400	-0.4660
163.0573	-315.6400	-0.4620
163.1580	-315.6400	-0.4663
163.2581	-315.6400	-0.4646
163.3581	-315.6400	-0.4656
163.4589	-315.6400	-0.4664
163.5580	-315.6400	-0.4654
163.6599	-315.6400	-0.4649
163.7592	-315.6400	-0.4652
163.8603	-315.6400	-0.4635
163.9609	-315.6400	-0.4644
164.0602	-315.6400	-0.4653
164.1607	-315.6400	-0.4631
164.2602	-315.6400	-0.4649
164.3602	-315.6400	-0.4611
164.4618	-315.6400	-0.4613
164.5616	-315.6400	-0.4617
164.6611	-315.6400	-0.4632
164.7630	-315.6400	-0.4633
164.8626	-315.6400	-0.4633
164.9631	-315.6400	-0.4631
165.0638	-315.6400	-0.4635
165.1646	-315.6400	-0.4632
165.2643	-315.6400	-0.4640
165.3649	-315.6400	-0.4638
165.4661	-315.6400	-0.4607
165.5654	-315.6400	-0.4645
165.6651	-315.6400	-0.4631
165.7652	-315.6400	-0.4643
165.8663	-315.6400	-0.4620
165.9668	-315.6400	-0.4652
166.0661	-315.6400	-0.4619
166.1661	-315.6400	-0.4623
166.2669	-315.6400	-0.4622
166.3679	-315.6400	-0.4648
166.4671	-315.6400	-0.4620
166.5678	-315.6400	-0.4626
166.6678	-315.6400	-0.4632
166.7678	-315.6400	-0.4629
166.8686	-315.6400	-0.4637
166.9684	-315.6400	-0.4645
167.0682	-315.6400	-0.4633
167.1696	-315.6400	-0.4631
167.2693	-315.6400	-0.4623
167.3700	-315.6400	-0.4635
167.4696	-315.6400	-0.4635
167.5700	-315.6400	-0.4642
167.6701	-315.6400	-0.4631
167.7711	-315.6400	-0.4639
167.8714	-315.6400	-0.4646
167.9719	-315.6400	-0.4637
168.0716	-315.6400	-0.4633
168.1713	-315.6400	-0.4640
168.2719	-315.6400	-0.4640
168.3722	-315.6400	-0.4616
168.4731	-315.6400	-0.4634
168.5740	-315.6400	-0.4636
168.6733	-315.6400	-0.4622
168.7732	-315.6400	-0.4641
168.8732	-315.6400	-0.4630
168.9737	-315.6400	-0.4613
169.0742	-315.6400	-0.4624
169.1746	-315.6400	-0.4639
169.2747	-315.6400	-0.4656
169.3751	-315.6400	-0.4615
169.4749	-315.6400	-0.4640
169.5750	-315.6400	-0.4640
169.6743	-315.6400	-0.4626
169.7752	-315.6400	-0.4620
169.8755	-315.6400	-0.4602
169.9755	-315.6400	-0.4611
170.0769	-315.6400	-0.4608
170.1772	-315.6400	-0.4620
170.2776	-315.6400	-0.4617
170.3772	-315.6400	-0.4605
170.4776	-315.6400	-0.4606
170.5773	-315.6400	-0.4606
170.6789	-315.6400	-0.4607
170.7801	-315.6400	-0.4592
170.8804	-315.6400	-0.4604
170.9806	-315.6400	-0.4621
171.0821	-315.6400	-0.4627
171.1819	-315.6400	-0.4615
171.2823	-315.6400	-0.4604
171.3834	-315.6400	-0.4620
171.4836	-315.6400	-0.4640
171.5837	-315.6400	-0.4630
171.6835	-315.6400	-0.4597
171.7832	-315.6400	-0.4629
171.8835	-315.6400	-0.4645
171.9837	-315.6400	-0.4634
172.0831	-315.6400	-0.4622
172.1844	-315.6400	-0.4627
172.2842	-315.6400	-0.4610
172.3852	-315.6400	-0.4608
172.4852	-315.6400	-0.4622
172.5858	-315.6400	-0.4611
172.6852	-315.6400	-0.4619
172.7852	-315.6400	-0.4610
172.8864	-315.6400	-0.4611
172.9875	-315.6400	-0.4625
173.0874	-315.6400	-0.4612
173.1891	-315.6400	-0.4625
173.2911	-315.6400	-0.4620
173.3906	-315.6400	-0.4618
173.4921	-315.6400	-0.4617
173.5916	-315.6400	-0.4619
173.6921	-315.6400	-0.4614
173.7918	-315.6400	-0.4603
173.8915	-315.6400	-0.4600
173.9922	-315.6400	-0.4598
174.0926	-315.6400	-0.4610
174.1924	-315.6400	-0.4613
174.2925	-315.6400	-0.4620
174.3922	-315.6400	-0.4594
174.4931	-315.6400	-0.4612
174.5929	-315.6400	-0.4604
174.6925	-315.6400	-0.4596
174.7927	-315.6400	-0.4594
174.8923	-315.6400	-0.4583
174.9922	-315.6400	-0.4588
175.0932	-315.6400	-0.4604
175.1936	-315.6400	-0.4609
175.2936	-315.6400	-0.4613
175.3939	-315.6400	-0.4604
175.4941	-315.6400	-0.4614
175.5939	-315.6400	-0.4593
175.6947	-315.6400	-0.4594
175.7944	-315.6400	-0.4587
175.8960	-315.6400	-0.4581
175.9954	-315.6400	-0.4562
176.0953	-315.6400	-0.4566
176.1955	-315.6400	-0.4590
176.2965	-315.6400	-0.4575
176.3968	-315.6400	-0.4573
176.4967	-315.6400	-0.4578
176.5965	-315.6400	-0.4570
176.6969	-315.6400	-0.4576
176.7980	-315.6400	-0.4576
176.8979	-315.6400	-0.4583
176.9976	-315.6400	-0.4595
177.0979	-315.6400	-0.4588
177.1973	-315.6400	-0.4581
177.2990	-315.6400	-0.4556
177.3989	-315.6400	-0.4557
177.4987	-315.6400	-0.4557
177.5988	-315.6400	-0.4571
177.6988	-315.6400	-0.4570
177.7984	-315.6400	-0.4556
177.8991	-315.6400	-0.4566
177.9991	-315.6400	-0.4563
178.0988	-315.6400	-0.4569
178.2001	-315.6400	-0.4556
178.2994	-315.6400	-0.4565
178.3997	-315.6400	-0.4560
178.4999	-315.6400	-0.4571
178.6012	-315.6400	-0.4580
178.7028	-315.6400	-0.4592
178.8023	-315.6400	-0.4556
178.9035	-315.6400	-0.4575
179.0052	-315.6400	-0.4578
179.1046	-315.6400	-0.4557
179.2056	-315.6400	-0.4571
179.3065	-315.6400	-0.4573
179.4063	-315.6400	-0.4566
179.5072	-315.6400	-0.4568
179.6078	-315.6400	-0.4578
179.7090	-315.6400	-0.4579
179.8090	-315.6400	-0.4541
179.9101	-315.6400	-0.4553
180.0102	-315.6400	-0.4556
180.1107	-315.6400	-0.4565
180.2112	-315.6400	-0.4554
180.3119	-315.6400	-0.4564
180.4112	-315.6400	-0.4587
180.5118	-315.6400	-0.4581
180.6131	-315.6400	-0.4583
180.7122	-315.6400	-0.4577
180.8128	-315.6400	-0.4556
180.9133	-315.6400	-0.4547
181.0142	-315.6400	-0.4542
181.1139	-315.6400	-0.4549
181.2139	-315.6400	-0.4521
181.3136	-315.6400	-0.4551
181.4139	-315.6400	-0.4523
181.5143	-315.6400	-0.4532
181.6143	-315.6400	-0.4537
181.7142	-315.6400	-0.4537
181.8157	-315.6400	-0.4531
181.9162	-315.6400	-0.4562
182.0155	-315.6400	-0.4541
182.1172	-315.6400	-0.4514
182.2180	-315.6400	-0.4515
182.3178	-315.6400	-0.4516
182.4189	-315.6400	-0.4540
182.5197	-315.6400	-0.4503
182.6199	-315.6400	-0.4539
182.7197	-315.6400	-0.4534
182.8204	-315.6400	-0.4560
182.9207	-315.6400	-0.4539
183.0214	-315.6400	-0.4530
183.1222	-315.6400	-0.4537
183.2225	-315.6400	-0.4539
183.3223	-315.6400	-0.4513
183.4228	-315.6400	-0.4533
183.5232	-315.6400	-0.4527
183.6235	-315.6400	-0.4525
183.7234	-315.6400	-0.4530
183.8242	-315.6400	-0.4540
183.9261	-315.6400	-0.4562
184.0253	-315.6400	-0.4551
184.1256	-315.6400	-0.4556
184.2253	-315.6400	-0.4558
184.3271	-315.6400	-0.4558
184.4265	-315.6400	-0.4562
184.5269	-315.6400	-0.4542
184.6263	-315.6400	-0.4544
184.7266	-315.6400	-0.4548
184.8266	-315.6400	-0.4523
184.9264	-315.6400	-0.4537
185.0272	-315.6400	-0.4540
185.1279	-315.6400	-0.4561
185.2282	-315.6400	-0.4532
185.3277	-315.6400	-0.4531
185.4281	-315.6400	-0.4538
185.5276	-315.6400	-0.4533
185.6280	-315.6400	-0.4526
185.7289	-315.6400	-0.4504
185.8284	-315.6400	-0.4528
185.9292	-315.6400	-0.4527
186.0294	-315.6400	-0.4539
186.1299	-315.6400	-0.4528
186.2301	-315.6400	-0.4539
186.3312	-315.6400	-0.4526
186.4309	-315.6400	-0.4535
186.5302	-315.6400	-0.4547
186.6306	-315.6400	-0.4540
186.7308	-315.6400	-0.4552
186.8307	-315.6400	-0.4532
186.9308	-315.6400	-0.4537
187.0309	-315.6400	-0.4543
187.1306	-315.6400	-0.4529
187.2304	-315.6400	-0.4554
187.3305	-315.6400	-0.4548
187.4303	-315.6400	-0.4544
187.5314	-315.6400	-0.4513
187.6322	-315.6400	-0.4539
187.7318	-315.6400	-0.4551
187.8331	-315.6400	-0.4524
187.9342	-315.6400	-0.4510
188.0333	-315.6400	-0.4552
188.1352	-315.6400	-0.4541
188.2345	-315.6400	-0.4536
188.3348	-315.6400	-0.4541
188.4348	-315.6400	-0.4544
188.5373	-315.6400	-0.4537
188.6371	-315.6400	-0.4531
188.7369	-315.6400	-0.4520
188.8376	-315.6400	-0.4540
188.9379	-315.6400	-0.4530
189.0375	-315.6400	-0.4480
189.1376	-315.6400	-0.4512
189.2373	-315.6400	-0.4526
189.3387	-315.6400	-0.4536
189.4385	-315.6400	-0.4513
189.5386	-315.6400	-0.4520
189.6392	-315.6400	-0.4530
189.7383	-315.6400	-0.4502
189.8384	-315.6400	-0.4512
189.9386	-315.6400	-0.4495
190.0400	-315.6400	-0.4511
190.1398	-315.6400	-0.4513
190.2399	-315.6400	-0.4512
190.3397	-315.6400	-0.4535
190.4396	-315.6400	-0.4516
190.5398	-315.6400	-0.4505
190.6394	-315.6400	-0.4509
190.7397	-315.6400	-0.4513
190.8410	-315.6400	-0.4525
190.9408	-315.6400	-0.4497
191.0413	-315.6400	-0.4507
191.1415	-315.6400	-0.4498
191.2425	-315.6400	-0.4510
191.3432	-315.6400	-0.4480
191.4438	-315.6400	-0.4479
191.5442	-315.6400	-0.4521
191.6435	-315.6400	-0.4490
191.7452	-315.6400	-0.4499
191.8450	-315.6400	-0.4464
191.9451	-315.6400	-0.4483
192.0448	-315.6400	-0.4452
192.1450	-315.6400	-0.4473
192.2447	-315.6400	-0.4453
192.3447	-315.6400	-0.4478
192.4448	-315.6400	-0.4486
192.5455	-315.6400	-0.4465
192.6456	-315.6400	-0.4450
192.7457	-315.6400	-0.4508
192.8457	-315.6400	-0.4470
192.9455	-315.6400	-0.4476
193.0454	-315.6400	-0.4472
193.1461	-315.6400	-0.4481
193.2455	-315.6400	-0.4465
193.3454	-315.6400	-0.4486
193.4457	-315.6400	-0.4507
193.5471	-315.6400	-0.4512
193.6473	-315.6400	-0.4503
193.7463	-315.6400	-0.4488
193.8473	-315.6400	-0.4497
193.9466	-315.6400	-0.4489
194.0477	-315.6400	-0.4472
194.1478	-315.6400	-0.4479
194.2478	-315.6400	-0.4507
194.3485	-315.6400	-0.4462
194.4485	-315.6400	-0.4492
194.5484	-315.6400	-0.4497
194.6515	-315.6400	-0.4474
194.7510	-315.6400	-0.4470
194.8513	-315.6400	-0.4461
194.9514	-315.6400	-0.4500
195.0515	-315.6400	-0.4492
195.1519	-315.6400	-0.4490
195.2516	-315.6400	-0.4478
195.3516	-315.6400	-0.4505
195.4523	-315.6400	-0.4497
195.5528	-315.6400	-0.4476
195.6542	-315.6400	-0.4475
195.7542	-315.6400	-0.4494
195.8541	-315.6400	-0.4491
195.9538	-315.6400	-0.4477
196.0543	-315.6400	-0.4478
196.1534	-315.6400	-0.4484
196.2542	-315.6400	-0.4488
196.3539	-315.6400	-0.4494
196.4544	-315.6400	-0.4504
196.5546	-315.6400	-0.4494
196.6554	-315.6400	-0.4479
196.7569	-315.6400	-0.4479
196.8574	-315.6400	-0.4475
196.9578	-315.6400	-0.4484
197.0575	-315.6400	-0.4504
197.1574	-315.6400	-0.4470
197.2583	-315.6400	-0.4457
197.3581	-315.6400	-0.4465
197.4593	-315.6400	-0.4493
197.5584	-315.6400	-0.4460
197.6603	-315.6400	-0.4479
197.7603	-315.6400	-0.4459
197.8600	-315.6400	-0.4468
197.9595	-315.6400	-0.4486
198.0599	-315.6400	-0.4477
198.1596	-315.6400	-0.4487
198.2608	-315.6400	-0.4474
198.3609	-315.6400	-0.4468
198.4609	-315.6400	-0.4455
198.5612	-315.6400	-0.4469
198.6609	-315.6400	-0.4478
198.7614	-315.6400	-0.4488
198.8619	-315.6400	-0.4472
198.9619	-315.6400	-0.4456
199.0620	-315.6400	-0.4459
199.1615	-315.6400	-0.4440
199.2620	-315.6400	-0.4472
199.3619	-315.6400	-0.4466
199.4616	-315.6400	-0.4469
199.5619	-315.6400	-0.4484
199.6623	-315.6400	-0.4482
199.7622	-315.6400	-0.4483
199.8620	-315.6400	-0.4452
199.9619	-315.6400	-0.4468
200.0623	-315.6400	-0.4467
200.1624	-315.6400	-0.4465
200.2633	-315.6400	-0.4436
200.3631	-315.6400	-0.4454
200.4632	-315.6400	-0.4482
200.5628	-315.6400	-0.4447
200.6629	-315.6400	-0.4454
200.7629	-315.6400	-0.4450
200.8634	-315.6400	-0.4454
200.9635	-315.6400	-0.4462
201.0635	-315.6400	-0.4460
201.1634	-315.6400	-0.4457
201.2635	-315.6400	-0.4448
201.3637	-315.6400	-0.4468
201.4638	-315.6400	-0.4458
201.5638	-315.6400	-0.4446
201.6642	-315.6400	-0.4436
201.7639	-315.6400	-0.4461
201.8647	-315.6400	-0.4454
201.9654	-315.6400	-0.4445
202.0656	-315.6400	-0.4442
202.1655	-315.6400	-0.4437
202.2663	-315.6400	-0.4457
202.3660	-315.6400	-0.4460
202.4657	-315.6400	-0.4461
202.5674	-315.6400	-0.4453
202.6667	-315.6400	-0.4444
202.7665	-315.6400	-0.4446
202.8665	-315.6400	-0.4456
202.9684	-315.6400	-0.4449
203.0678	-315.6400	-0.4428
203.1679	-315.6400	-0.4432
203.2692	-315.6400	-0.4450
203.3693	-315.6400	-0.4433
203.4688	-315.6400	-0.4410
203.5691	-315.6400	-0.4406
203.6685	-315.6400	-0.4423
203.7694	-315.6400	-0.4431
203.8690	-315.6400	-0.4444
203.9691	-315.6400	-0.4414
204.0696	-315.6400	-0.4401
204.1704	-315.6400	-0.4428
204.2709	-315.6400	-0.4437
204.3719	-315.6400	-0.4453
204.4744	-315.6400	-0.4420
204.5733	-315.6400	-0.4412
204.6743	-315.6400	-0.4406
204.7753	-315.6400	-0.4432
204.8752	-315.6400	-0.4435
204.9753	-315.6400	-0.4416
205.0764	-315.6400	-0.4417
205.1760	-315.6400	-0.4415
205.2757	-315.6400	-0.4403
205.3757	-315.6400	-0.4407
205.4773	-315.6400	-0.4413
205.5773	-315.6400	-0.4409
205.6769	-315.6400	-0.4418
205.7776	-315.6400	-0.4415
205.8794	-315.6400	-0.4418
205.9785	-315.6400	-0.4395
206.0794	-315.6400	-0.4401
206.1797	-315.6400	-0.4407
206.2814	-315.6400	-0.4409
206.3812	-315.6400	-0.4400
206.4817	-315.6400	-0.4415
206.5816	-315.6400	-0.4421
206.6817	-315.6400	-0.4409
206.7822	-315.6400	-0.4378
206.8821	-315.6400	-0.4423
206.9820	-315.6400	-0.4419
207.0822	-315.6400	-0.4412
207.1824	-315.6400	-0.4414
207.2823	-315.6400	-0.4402
207.3823	-315.6400	-0.4392
207.4834	-315.6400	-0.4398
207.5832	-315.6400	-0.4419
207.6831	-315.6400	-0.4409
207.7832	-315.6400	-0.4413
207.8830	-315.6400	-0.4422
207.9827	-315.6400	-0.4426
208.0834	-315.6400	-0.4455
208.1833	-315.6400	-0.4438
208.2843	-315.6400	-0.4425
208.3844	-315.6400	-0.4430
208.4845	-315.6400	-0.4432
208.5851	-315.6400	-0.4416
208.6847	-315.6400	-0.4423
208.7852	-315.6400	-0.4443
208.8851	-315.6400	-0.4451
208.9848	-315.6400	-0.4434
209.0857	-315.6400	-0.4426
209.1857	-315.6400	-0.4428
209.2858	-315.6400	-0.4418
209.3857	-315.6400	-0.4409
209.4873	-315.6400	-0.4430
209.5869	-315.6400	-0.4401
209.6873	-315.6400	-0.4406
209.7867	-315.6400	-0.4409
209.8879	-315.6400	-0.4407
209.9888	-315.6400	-0.4431
210.0894	-315.6400	-0.4421
210.1902	-315.6400	-0.4403
210.2914	-315.6400	-0.4420
210.3920	-315.6400	-0.4405
210.4923	-315.6400	-0.4394
210.5919	-315.6400	-0.4394
210.6917	-315.6400	-0.4405
210.7915	-315.6400	-0.4408
210.8918	-315.6400	-0.4407
210.9920	-315.6400	-0.4406
211.0925	-315.6400	-0.4413
211.1920	-315.6400	-0.4419
211.2925	-315.6400	-0.4436
211.3919	-315.6400	-0.4420
211.4934	-315.6400	-0.4431
211.5932	-315.6400	-0.4398
211.6929	-315.6400	-0.4368
211.7928	-315.6400	-0.4410
211.8936	-315.6400	-0.4413
211.9950	-315.6400	-0.4414
212.0954	-315.6400	-0.4399
212.1962	-315.6400	-0.4401
212.2964	-315.6400	-0.4400
212.3958	-315.6400	-0.4401
212.4958	-315.6400	-0.4401
212.5965	-315.6400	-0.4410
212.6956	-315.6400	-0.4399
212.7975	-315.6400	-0.4400
212.8984	-315.6400	-0.4396
212.9982	-315.6400	-0.4401
213.0980	-315.6400	-0.4386
213.1979	-315.6400	-0.4422
213.2982	-315.6400	-0.4422
213.3995	-315.6400	-0.4415
213.5001	-315.6400	-0.4394
213.6004	-315.6400	-0.4422
213.7010	-315.6400	-0.4409
213.8013	-315.6400	-0.4413
213.9009	-315.6400	-0.4398
214.0010	-315.6400	-0.4413
214.1011	-315.6400	-0.4388
214.2012	-315.6400	-0.4418
214.3013	-315.6400	-0.4424
214.4010	-315.6400	-0.4428
214.5015	-315.6400	-0.4405
214.6012	-315.6400	-0.4401
214.7012	-315.6400	-0.4391
214.8014	-315.6400	-0.4409
214.9006	-315.6400	-0.4391
215.0008	-315.6400	-0.4391
215.1010	-315.6400	-0.4376
215.2010	-315.6400	-0.4399
215.3016	-315.6400	-0.4386
215.4033	-315.6400	-0.4403
215.5031	-315.6400	-0.4403
215.6033	-315.6400	-0.4400
215.7043	-315.6400	-0.4392
215.8039	-315.6400	-0.4369
215.9045	-315.6400	-0.4374
216.0044	-315.6400	-0.4370
216.1037	-315.6400	-0.4381
216.2047	-315.6400	-0.4368
216.3046	-315.6400	-0.4368
216.4051	-315.6400	-0.4402
216.5058	-315.6400	-0.4407
216.6059	-315.6400	-0.4376
216.7057	-315.6400	-0.4384
216.8058	-315.6400	-0.4395
216.9059	-315.6400	-0.4372
217.0068	-315.6400	-0.4383
217.1066	-315.6400	-0.4374
217.2068	-315.6400	-0.4364
217.3078	-315.6400	-0.4365
217.4092	-315.6400	-0.4379
217.5103	-315.6400	-0.4398
217.6100	-315.6400	-0.4399
217.7097	-315.6400	-0.4397
217.8107	-315.6400	-0.4388
217.9109	-315.6400	-0.4372
218.0126	-315.6400	-0.4375
218.1130	-315.6400	-0.4373
218.2126	-315.6400	-0.4396
218.3133	-315.6400	-0.4382
218.4131	-315.6400	-0.4383
218.5126	-315.6400	-0.4388
218.6145	-315.6400	-0.4389
218.7146	-315.6400	-0.4393
218.8147	-315.6400	-0.4393
218.9163	-315.6400	-0.4375
219.0166	-315.6400	-0.4399
219.1169	-315.6400	-0.4411
219.2174	-315.6400	-0.4379
219.3175	-315.6400	-0.4382
219.4167	-315.6400	-0.4368
219.5173	-315.6400	-0.4370
219.6172	-315.6400	-0.4369
219.7173	-315.6400	-0.4375
219.8175	-315.6400	-0.4390
219.9173	-315.6400	-0.4406
220.0171	-315.6400	-0.4390
220.1186	-315.6400	-0.4381
220.2187	-315.6400	-0.4395
220.3203	-315.6400	-0.4405
220.4198	-315.6400	-0.4402
220.5215	-315.6400	-0.4389
220.6213	-315.6400	-0.4395
220.7224	-315.6400	-0.4400
220.8228	-315.6400	-0.4381
220.9229	-315.6400	-0.4384
221.0237	-315.6400	-0.4373
221.1245	-315.6400	-0.4386
221.2240	-315.6400	-0.4385
221.3240	-315.6400	-0.4379
221.4239	-315.6400	-0.4389
221.5257	-315.6400	-0.4385
221.6259	-315.6400	-0.4376
221.7263	-315.6400	-0.4351
221.8256	-315.6400	-0.4357
221.9260	-315.6400	-0.4364
222.0259	-315.6400	-0.4371
222.1258	-315.6400	-0.4338
222.2256	-315.6400	-0.4342
222.3259	-315.6400	-0.4388
222.4268	-315.6400	-0.4352
222.5277	-315.6400	-0.4374
222.6292	-315.6400	-0.4374
222.7297	-315.6400	-0.4381
222.8299	-315.6400	-0.4373
222.9302	-315.6400	-0.4374
223.0300	-315.6400	-0.4377
223.1298	-315.6400	-0.4364
223.2308	-315.6400	-0.4376
223.3306	-315.6400	-0.4373
223.4313	-315.6400	-0.4367
223.5315	-315.6400	-0.4367
223.6313	-315.6400	-0.4365
223.7313	-315.6400	-0.4384
223.8309	-315.6400	-0.4375
223.9307	-315.6400	-0.4363
224.0310	-315.6400	-0.4372
224.1312	-315.6400	-0.4375
224.2308	-315.6400	-0.4375
224.3309	-315.6400	-0.4344
224.4310	-315.6400	-0.4362
224.5308	-315.6400	-0.4322
224.6307	-315.6400	-0.4361
