4/12/2023 3:45:38 pm
Time(s)	Displacement(mm)	Force(N)
0.0000	-265.7740	1.2462
0.1207	-266.1860	1.2522
0.2217	-266.8710	1.2419
0.3217	-267.5210	1.2349
0.4214	-268.2040	1.2277
0.5217	-268.8530	1.2132
0.6218	-269.5370	1.2051
0.7221	-270.1870	1.1947
0.8216	-270.8710	1.1823
0.9218	-271.5200	1.1709
1.0229	-272.2060	1.1659
1.1229	-272.8560	1.1532
1.2242	-273.5390	1.1453
1.3241	-274.2220	1.1445
1.4239	-274.8720	1.1419
1.5247	-275.5550	1.1387
1.6261	-276.2400	1.1368
1.7261	-276.8890	1.1399
1.8263	-277.5730	1.1339
1.9266	-278.2220	1.1298
2.0273	-278.9050	1.1315
2.1269	-279.5540	1.1320
2.2269	-280.2380	1.1312
2.3279	-280.8870	1.1302
2.4278	-281.5710	1.1283
2.5276	-282.2550	1.1260
2.6282	-282.9040	1.1295
2.7282	-283.5530	1.1307
2.8284	-284.2400	1.1290
2.9288	-284.8890	1.1276
3.0284	-285.5750	1.1272
3.1288	-286.2590	1.1269
3.2289	-286.9080	1.1267
3.3288	-287.5920	1.1247
3.4292	-288.2410	1.1238
3.5288	-288.8910	1.1192
3.6292	-289.5740	1.1222
3.7288	-290.2240	1.1172
3.8293	-290.9100	1.1150
3.9303	-291.5930	1.1101
4.0309	-292.2430	1.1074
4.1308	-292.9260	1.1021
4.2311	-293.5760	1.0988
4.3321	-294.2590	1.0887
4.4316	-294.9430	1.0827
4.5314	-295.5920	1.0738
4.6328	-296.2760	1.0650
4.7342	-296.9250	1.0522
4.8336	-297.6080	1.0376
4.9335	-298.2580	1.0201
5.0353	-298.9760	0.9983
5.1359	-299.6250	0.9768
5.2356	-300.2750	0.9587
5.3354	-300.9580	0.9347
5.4361	-301.6080	0.9066
5.5359	-302.2910	0.8794
5.6359	-302.9410	0.8506
5.7357	-303.6240	0.8167
5.8358	-304.2740	0.7763
5.9358	-304.9570	0.7426
6.0356	-305.6410	0.6992
6.1373	-306.2910	0.6492
6.2369	-306.9740	0.6033
6.3373	-307.6230	0.5478
6.4372	-308.3070	0.4858
6.5377	-308.9570	0.4250
6.6382	-309.6400	0.3582
6.7379	-310.2900	0.2830
6.8380	-310.9730	0.2002
6.9374	-311.6220	0.1081
7.0390	-312.3060	0.0092
7.1384	-312.9550	-0.1006
7.2385	-313.6390	-0.2214
7.3388	-314.3220	-0.3552
7.4386	-314.9720	-0.5368
7.5400	-315.6080	-1.0671
7.6396	-315.6410	-0.9771
7.7405	-315.6410	-0.9128
7.8402	-315.6410	-0.8765
7.9403	-315.6410	-0.8501
8.0399	-315.6400	-0.8317
8.1400	-315.6400	-0.8159
8.2398	-315.6400	-0.8022
8.3395	-315.6400	-0.7918
8.4402	-315.6400	-0.7776
8.5394	-315.6400	-0.7730
8.6402	-315.6400	-0.7663
8.7413	-315.6400	-0.7565
8.8406	-315.6400	-0.7532
8.9408	-315.6400	-0.7465
9.0411	-315.6400	-0.7404
9.1404	-315.6400	-0.7346
9.2404	-315.6400	-0.7319
9.3404	-315.6400	-0.7275
9.4407	-315.6400	-0.7207
9.5405	-315.6400	-0.7206
9.6407	-315.6400	-0.7196
9.7407	-315.6400	-0.7121
9.8407	-315.6400	-0.7109
9.9408	-315.6400	-0.7088
10.0406	-315.6400	-0.7024
10.1407	-315.6400	-0.7025
10.2407	-315.6400	-0.6995
10.3411	-315.6400	-0.6981
10.4406	-315.6400	-0.6965
10.5415	-315.6400	-0.6941
10.6422	-315.6400	-0.6902
10.7420	-315.6400	-0.6899
10.8433	-315.6400	-0.6850
10.9441	-315.6400	-0.6831
11.0440	-315.6400	-0.6828
11.1446	-315.6400	-0.6803
11.2463	-315.6400	-0.6784
11.3456	-315.6400	-0.6795
11.4465	-315.6400	-0.6777
11.5471	-315.6400	-0.6765
11.6475	-315.6400	-0.6713
11.7480	-315.6400	-0.6664
11.8490	-315.6400	-0.6703
11.9501	-315.6400	-0.6672
12.0495	-315.6400	-0.6701
12.1504	-315.6400	-0.6668
12.2507	-315.6400	-0.6644
12.3506	-315.6400	-0.6628
12.4508	-315.6400	-0.6634
12.5504	-315.6400	-0.6589
12.6508	-315.6400	-0.6589
12.7515	-315.6400	-0.6564
12.8527	-315.6400	-0.6535
12.9543	-315.6400	-0.6515
13.0546	-315.6400	-0.6538
13.1550	-315.6400	-0.6526
13.2553	-315.6400	-0.6513
13.3545	-315.6400	-0.6488
13.4546	-315.6400	-0.6492
13.5550	-315.6400	-0.6470
13.6546	-315.6400	-0.6464
13.7567	-315.6400	-0.6451
13.8559	-315.6400	-0.6489
13.9560	-315.6400	-0.6439
14.0565	-315.6400	-0.6423
14.1582	-315.6400	-0.6427
14.2583	-315.6400	-0.6414
14.3580	-315.6400	-0.6375
14.4577	-315.6400	-0.6415
14.5580	-315.6400	-0.6389
14.6579	-315.6400	-0.6393
14.7591	-315.6400	-0.6373
14.8587	-315.6400	-0.6357
14.9592	-315.6400	-0.6365
15.0588	-315.6400	-0.6374
15.1600	-315.6400	-0.6373
15.2599	-315.6400	-0.6336
15.3600	-315.6400	-0.6332
15.4597	-315.6400	-0.6315
15.5610	-315.6400	-0.6300
15.6607	-315.6400	-0.6298
15.7620	-315.6400	-0.6285
15.8616	-315.6400	-0.6311
15.9624	-315.6400	-0.6293
16.0617	-315.6400	-0.6282
16.1628	-315.6400	-0.6283
16.2624	-315.6400	-0.6261
16.3627	-315.6400	-0.6250
16.4628	-315.6400	-0.6259
16.5627	-315.6400	-0.6264
16.6625	-315.6400	-0.6243
16.7628	-315.6400	-0.6243
16.8628	-315.6400	-0.6224
16.9625	-315.6400	-0.6208
17.0626	-315.6400	-0.6229
17.1627	-315.6400	-0.6172
17.2627	-315.6400	-0.6198
17.3628	-315.6400	-0.6176
17.4628	-315.6400	-0.6172
17.5629	-315.6400	-0.6167
17.6629	-315.6400	-0.6166
17.7629	-315.6400	-0.6168
17.8628	-315.6400	-0.6200
17.9626	-315.6400	-0.6163
18.0629	-315.6400	-0.6169
18.1629	-315.6400	-0.6123
18.2627	-315.6400	-0.6136
18.3636	-315.6400	-0.6110
18.4635	-315.6400	-0.6110
18.5650	-315.6400	-0.6108
18.6653	-315.6400	-0.6102
18.7647	-315.6400	-0.6097
18.8653	-315.6400	-0.6111
18.9652	-315.6400	-0.6110
19.0659	-315.6400	-0.6090
19.1655	-315.6400	-0.6075
19.2662	-315.6400	-0.6077
19.3657	-315.6400	-0.6094
19.4664	-315.6400	-0.6077
19.5657	-315.6400	-0.6080
19.6662	-315.6400	-0.6074
19.7664	-315.6400	-0.6087
19.8661	-315.6400	-0.6067
19.9664	-315.6400	-0.6040
20.0665	-315.6400	-0.6044
20.1680	-315.6400	-0.6042
20.2688	-315.6400	-0.6001
20.3690	-315.6400	-0.6021
20.4689	-315.6400	-0.6015
20.5690	-315.6400	-0.6000
20.6701	-315.6400	-0.5996
20.7706	-315.6400	-0.5981
20.8722	-315.6400	-0.5992
20.9720	-315.6400	-0.5982
21.0725	-315.6400	-0.6006
21.1741	-315.6400	-0.6005
21.2738	-315.6400	-0.6016
21.3735	-315.6400	-0.6011
21.4738	-315.6400	-0.5993
21.5735	-315.6400	-0.5991
21.6739	-315.6400	-0.5986
21.7738	-315.6400	-0.5965
21.8751	-315.6400	-0.5980
21.9748	-315.6400	-0.5969
22.0752	-315.6400	-0.5968
22.1754	-315.6400	-0.5952
22.2750	-315.6400	-0.5964
22.3747	-315.6400	-0.5961
22.4761	-315.6400	-0.5942
22.5763	-315.6400	-0.5943
22.6759	-315.6400	-0.5930
22.7758	-315.6400	-0.5930
22.8765	-315.6400	-0.5925
22.9767	-315.6400	-0.5919
23.0770	-315.6400	-0.5931
23.1767	-315.6400	-0.5930
23.2770	-315.6400	-0.5921
23.3772	-315.6400	-0.5905
23.4766	-315.6400	-0.5911
23.5772	-315.6400	-0.5910
23.6767	-315.6400	-0.5925
23.7776	-315.6400	-0.5908
23.8791	-315.6400	-0.5864
23.9796	-315.6400	-0.5879
24.0802	-315.6400	-0.5873
24.1804	-315.6400	-0.5858
24.2802	-315.6400	-0.5877
24.3803	-315.6400	-0.5891
24.4803	-315.6400	-0.5866
24.5802	-315.6400	-0.5848
24.6812	-315.6400	-0.5870
24.7809	-315.6400	-0.5877
24.8808	-315.6400	-0.5870
24.9808	-315.6400	-0.5859
25.0809	-315.6400	-0.5843
25.1808	-315.6400	-0.5853
25.2824	-315.6400	-0.5831
25.3825	-315.6400	-0.5855
25.4825	-315.6400	-0.5827
25.5832	-315.6400	-0.5824
25.6831	-315.6400	-0.5836
25.7832	-315.6400	-0.5828
25.8832	-315.6400	-0.5794
25.9835	-315.6400	-0.5814
26.0841	-315.6400	-0.5804
26.1844	-315.6400	-0.5796
26.2847	-315.6400	-0.5797
26.3852	-315.6400	-0.5812
26.4864	-315.6400	-0.5811
26.5862	-315.6400	-0.5823
26.6859	-315.6400	-0.5825
26.7859	-315.6400	-0.5813
26.8857	-315.6400	-0.5816
26.9870	-315.6400	-0.5807
27.0878	-315.6400	-0.5792
27.1881	-315.6400	-0.5807
27.2885	-315.6400	-0.5810
27.3882	-315.6400	-0.5783
27.4885	-315.6400	-0.5791
27.5886	-315.6400	-0.5759
27.6891	-315.6400	-0.5763
27.7889	-315.6400	-0.5779
27.8886	-315.6400	-0.5759
27.9887	-315.6400	-0.5750
28.0890	-315.6400	-0.5767
28.1901	-315.6400	-0.5737
28.2911	-315.6400	-0.5737
28.3921	-315.6400	-0.5737
28.4922	-315.6400	-0.5735
28.5925	-315.6400	-0.5721
28.6928	-315.6400	-0.5713
28.7933	-315.6400	-0.5714
28.8941	-315.6400	-0.5732
28.9947	-315.6400	-0.5718
29.0958	-315.6400	-0.5710
29.1961	-315.6400	-0.5712
29.2971	-315.6400	-0.5718
29.3971	-315.6400	-0.5704
29.4968	-315.6400	-0.5701
29.5983	-315.6400	-0.5687
29.6985	-315.6400	-0.5689
29.7985	-315.6400	-0.5672
29.8979	-315.6400	-0.5689
29.9993	-315.6400	-0.5685
30.0992	-315.6400	-0.5670
30.2002	-315.6400	-0.5710
30.3007	-315.6400	-0.5689
30.4006	-315.6400	-0.5694
30.5005	-315.6400	-0.5679
30.6022	-315.6400	-0.5668
30.7020	-315.6400	-0.5671
30.8030	-315.6400	-0.5684
30.9030	-315.6400	-0.5699
31.0041	-315.6400	-0.5675
31.1044	-315.6400	-0.5642
31.2042	-315.6400	-0.5712
31.3036	-315.6400	-0.5668
31.4041	-315.6400	-0.5674
31.5044	-315.6400	-0.5673
31.6041	-315.6400	-0.5682
31.7036	-315.6400	-0.5683
31.8039	-315.6400	-0.5659
31.9036	-315.6400	-0.5684
32.0043	-315.6400	-0.5664
32.1040	-315.6400	-0.5655
32.2041	-315.6400	-0.5650
32.3051	-315.6400	-0.5686
32.4047	-315.6400	-0.5662
32.5057	-315.6400	-0.5674
32.6057	-315.6400	-0.5655
32.7060	-315.6400	-0.5640
32.8061	-315.6400	-0.5635
32.9065	-315.6400	-0.5635
33.0068	-315.6400	-0.5622
33.1069	-315.6400	-0.5656
33.2066	-315.6400	-0.5652
33.3078	-315.6400	-0.5642
33.4081	-315.6400	-0.5637
33.5083	-315.6400	-0.5647
33.6076	-315.6400	-0.5627
33.7081	-315.6400	-0.5626
33.8087	-315.6400	-0.5631
33.9104	-315.6400	-0.5625
34.0096	-315.6400	-0.5615
34.1104	-315.6400	-0.5637
34.2110	-315.6400	-0.5608
34.3109	-315.6400	-0.5613
34.4109	-315.6400	-0.5628
34.5116	-315.6400	-0.5604
34.6124	-315.6400	-0.5608
34.7117	-315.6400	-0.5590
34.8123	-315.6400	-0.5602
34.9126	-315.6400	-0.5595
35.0131	-315.6400	-0.5597
35.1130	-315.6400	-0.5603
35.2144	-315.6400	-0.5572
35.3137	-315.6400	-0.5578
35.4140	-315.6400	-0.5595
35.5141	-315.6400	-0.5560
35.6151	-315.6400	-0.5558
35.7156	-315.6400	-0.5566
35.8147	-315.6400	-0.5540
35.9153	-315.6400	-0.5553
36.0151	-315.6400	-0.5563
36.1152	-315.6400	-0.5558
36.2153	-315.6400	-0.5569
36.3155	-315.6400	-0.5566
36.4166	-315.6400	-0.5563
36.5168	-315.6400	-0.5590
36.6182	-315.6400	-0.5570
36.7183	-315.6400	-0.5566
36.8187	-315.6400	-0.5564
36.9190	-315.6400	-0.5589
37.0194	-315.6400	-0.5558
37.1190	-315.6400	-0.5554
37.2188	-315.6400	-0.5568
37.3196	-315.6400	-0.5551
37.4212	-315.6400	-0.5554
37.5213	-315.6400	-0.5546
37.6208	-315.6400	-0.5541
37.7225	-315.6400	-0.5539
37.8224	-315.6400	-0.5541
37.9216	-315.6400	-0.5530
38.0216	-315.6400	-0.5529
38.1232	-315.6400	-0.5533
38.2241	-315.6400	-0.5538
38.3255	-315.6400	-0.5531
38.4247	-315.6400	-0.5537
38.5263	-315.6400	-0.5551
38.6267	-315.6400	-0.5549
38.7282	-315.6400	-0.5531
38.8282	-315.6400	-0.5526
38.9283	-315.6400	-0.5522
39.0284	-315.6400	-0.5515
39.1290	-315.6400	-0.5517
39.2301	-315.6400	-0.5511
39.3305	-315.6400	-0.5520
39.4312	-315.6400	-0.5542
39.5322	-315.6400	-0.5550
39.6327	-315.6400	-0.5540
39.7343	-315.6400	-0.5514
39.8353	-315.6400	-0.5515
39.9354	-315.6400	-0.5518
40.0357	-315.6400	-0.5517
40.1360	-315.6400	-0.5492
40.2357	-315.6400	-0.5494
40.3364	-315.6400	-0.5490
40.4362	-315.6400	-0.5495
40.5363	-315.6400	-0.5498
40.6361	-315.6400	-0.5490
40.7363	-315.6400	-0.5520
40.8362	-315.6400	-0.5495
40.9370	-315.6400	-0.5511
41.0372	-315.6400	-0.5497
41.1371	-315.6400	-0.5486
41.2367	-315.6400	-0.5488
41.3384	-315.6400	-0.5478
41.4377	-315.6400	-0.5492
41.5379	-315.6400	-0.5506
41.6383	-315.6400	-0.5497
41.7385	-315.6400	-0.5492
41.8380	-315.6400	-0.5493
41.9379	-315.6400	-0.5470
42.0378	-315.6400	-0.5464
42.1379	-315.6400	-0.5458
42.2377	-315.6400	-0.5468
42.3377	-315.6400	-0.5462
42.4378	-315.6400	-0.5453
42.5385	-315.6400	-0.5453
42.6378	-315.6400	-0.5467
42.7381	-315.6400	-0.5468
42.8385	-315.6400	-0.5465
42.9377	-315.6400	-0.5466
43.0378	-315.6400	-0.5474
43.1386	-315.6400	-0.5467
43.2396	-315.6400	-0.5461
43.3387	-315.6400	-0.5442
43.4403	-315.6400	-0.5467
43.5401	-315.6400	-0.5462
43.6414	-315.6400	-0.5469
43.7426	-315.6400	-0.5447
43.8429	-315.6400	-0.5483
43.9433	-315.6400	-0.5450
44.0433	-315.6400	-0.5448
44.1440	-315.6400	-0.5481
44.2443	-315.6400	-0.5462
44.3441	-315.6400	-0.5453
44.4443	-315.6400	-0.5433
44.5445	-315.6400	-0.5443
44.6438	-315.6400	-0.5445
44.7453	-315.6400	-0.5429
44.8463	-315.6400	-0.5446
44.9450	-315.6400	-0.5452
45.0449	-315.6400	-0.5437
45.1456	-315.6400	-0.5412
45.2454	-315.6400	-0.5425
45.3453	-315.6400	-0.5443
45.4454	-315.6400	-0.5432
45.5456	-315.6400	-0.5439
45.6454	-315.6400	-0.5449
45.7451	-315.6400	-0.5429
45.8453	-315.6400	-0.5430
45.9461	-315.6400	-0.5442
46.0463	-315.6400	-0.5428
46.1468	-315.6400	-0.5423
46.2473	-315.6400	-0.5442
46.3487	-315.6400	-0.5404
46.4487	-315.6400	-0.5411
46.5503	-315.6400	-0.5414
46.6504	-315.6400	-0.5407
46.7516	-315.6400	-0.5412
46.8510	-315.6400	-0.5417
46.9513	-315.6400	-0.5406
47.0511	-315.6400	-0.5435
47.1510	-315.6400	-0.5425
47.2508	-315.6400	-0.5424
47.3521	-315.6400	-0.5389
47.4532	-315.6400	-0.5388
47.5529	-315.6400	-0.5398
47.6530	-315.6400	-0.5374
47.7529	-315.6400	-0.5397
47.8546	-315.6400	-0.5399
47.9544	-315.6400	-0.5386
48.0538	-315.6400	-0.5401
48.1563	-315.6400	-0.5374
48.2559	-315.6400	-0.5403
48.3561	-315.6400	-0.5396
48.4573	-315.6400	-0.5381
48.5574	-315.6400	-0.5366
48.6573	-315.6400	-0.5395
48.7571	-315.6400	-0.5392
48.8569	-315.6400	-0.5384
48.9568	-315.6400	-0.5358
49.0578	-315.6400	-0.5366
49.1583	-315.6400	-0.5365
49.2580	-315.6400	-0.5390
49.3580	-315.6400	-0.5361
49.4578	-315.6400	-0.5377
49.5587	-315.6400	-0.5377
49.6579	-315.6400	-0.5370
49.7580	-315.6400	-0.5392
49.8578	-315.6400	-0.5388
49.9578	-315.6400	-0.5380
50.0587	-315.6400	-0.5361
50.1582	-315.6400	-0.5338
50.2593	-315.6400	-0.5348
50.3592	-315.6400	-0.5356
50.4598	-315.6400	-0.5312
50.5604	-315.6400	-0.5331
50.6601	-315.6400	-0.5332
50.7606	-315.6400	-0.5363
50.8605	-315.6400	-0.5351
50.9604	-315.6400	-0.5341
51.0605	-315.6400	-0.5348
51.1604	-315.6400	-0.5348
51.2605	-315.6400	-0.5319
51.3605	-315.6400	-0.5322
51.4602	-315.6400	-0.5318
51.5603	-315.6400	-0.5306
51.6612	-315.6400	-0.5335
51.7614	-315.6400	-0.5321
51.8609	-315.6400	-0.5363
51.9614	-315.6400	-0.5319
52.0626	-315.6400	-0.5336
52.1633	-315.6400	-0.5325
52.2632	-315.6400	-0.5322
52.3653	-315.6400	-0.5316
52.4646	-315.6400	-0.5304
52.5653	-315.6400	-0.5309
52.6648	-315.6400	-0.5330
52.7655	-315.6400	-0.5331
52.8649	-315.6400	-0.5325
52.9656	-315.6400	-0.5343
53.0651	-315.6400	-0.5331
53.1648	-315.6400	-0.5312
53.2655	-315.6400	-0.5318
53.3657	-315.6400	-0.5306
53.4648	-315.6400	-0.5332
53.5664	-315.6400	-0.5302
53.6665	-315.6400	-0.5325
53.7660	-315.6400	-0.5312
53.8662	-315.6400	-0.5294
53.9664	-315.6400	-0.5294
54.0666	-315.6400	-0.5293
54.1664	-315.6400	-0.5303
54.2675	-315.6400	-0.5289
54.3670	-315.6400	-0.5300
54.4670	-315.6400	-0.5332
54.5668	-315.6400	-0.5330
54.6697	-315.6400	-0.5300
54.7689	-315.6400	-0.5312
54.8691	-315.6400	-0.5306
54.9693	-315.6400	-0.5290
55.0699	-315.6400	-0.5281
55.1704	-315.6400	-0.5327
55.2714	-315.6400	-0.5315
55.3711	-315.6400	-0.5312
55.4712	-315.6400	-0.5310
55.5711	-315.6400	-0.5288
55.6721	-315.6400	-0.5274
55.7718	-315.6400	-0.5308
55.8719	-315.6400	-0.5287
55.9720	-315.6400	-0.5326
56.0718	-315.6400	-0.5297
56.1725	-315.6400	-0.5283
56.2734	-315.6400	-0.5290
56.3730	-315.6400	-0.5272
56.4742	-315.6400	-0.5278
56.5742	-315.6400	-0.5265
56.6747	-315.6400	-0.5276
56.7741	-315.6400	-0.5272
56.8750	-315.6400	-0.5289
56.9758	-315.6400	-0.5301
57.0767	-315.6400	-0.5267
57.1766	-315.6400	-0.5246
57.2761	-315.6400	-0.5262
57.3759	-315.6400	-0.5255
57.4767	-315.6400	-0.5288
57.5768	-315.6400	-0.5284
57.6779	-315.6400	-0.5281
57.7784	-315.6400	-0.5261
57.8786	-315.6400	-0.5260
57.9783	-315.6400	-0.5280
58.0787	-315.6400	-0.5281
58.1787	-315.6400	-0.5264
58.2778	-315.6400	-0.5253
58.3783	-315.6400	-0.5275
58.4780	-315.6400	-0.5275
58.5797	-315.6400	-0.5255
58.6796	-315.6400	-0.5265
58.7802	-315.6400	-0.5265
58.8810	-315.6400	-0.5251
58.9811	-315.6400	-0.5245
59.0811	-315.6400	-0.5264
59.1823	-315.6400	-0.5228
59.2822	-315.6400	-0.5228
59.3826	-315.6400	-0.5229
59.4834	-315.6400	-0.5241
59.5842	-315.6400	-0.5277
59.6846	-315.6400	-0.5264
59.7848	-315.6400	-0.5261
59.8844	-315.6400	-0.5265
59.9842	-315.6400	-0.5254
60.0855	-315.6400	-0.5237
60.1848	-315.6400	-0.5249
60.2867	-315.6400	-0.5257
60.3870	-315.6400	-0.5243
60.4879	-315.6400	-0.5218
60.5893	-315.6400	-0.5256
60.6888	-315.6400	-0.5260
60.7889	-315.6400	-0.5250
60.8894	-315.6400	-0.5231
60.9899	-315.6400	-0.5232
61.0900	-315.6400	-0.5234
61.1904	-315.6400	-0.5215
61.2905	-315.6400	-0.5219
61.3908	-315.6400	-0.5242
61.4911	-315.6400	-0.5233
61.5924	-315.6400	-0.5234
61.6946	-315.6400	-0.5229
61.7954	-315.6400	-0.5235
61.8952	-315.6400	-0.5233
61.9954	-315.6400	-0.5247
62.0958	-315.6400	-0.5225
62.1956	-315.6400	-0.5217
62.2950	-315.6400	-0.5224
62.3967	-315.6400	-0.5189
62.4966	-315.6400	-0.5211
62.5965	-315.6400	-0.5224
62.6961	-315.6400	-0.5210
62.7964	-315.6400	-0.5207
62.8966	-315.6400	-0.5196
62.9975	-315.6400	-0.5183
63.0979	-315.6400	-0.5196
63.1985	-315.6400	-0.5192
63.2986	-315.6400	-0.5194
63.3987	-315.6400	-0.5210
63.4981	-315.6400	-0.5223
63.5988	-315.6400	-0.5217
63.6997	-315.6400	-0.5209
63.7999	-315.6400	-0.5212
63.8999	-315.6400	-0.5222
64.0000	-315.6400	-0.5201
64.1001	-315.6400	-0.5193
64.2015	-315.6400	-0.5214
64.3012	-315.6400	-0.5202
64.4012	-315.6400	-0.5159
64.5008	-315.6400	-0.5174
64.6013	-315.6400	-0.5177
64.7024	-315.6400	-0.5190
64.8022	-315.6400	-0.5183
64.9019	-315.6400	-0.5193
65.0028	-315.6400	-0.5187
65.1033	-315.6400	-0.5172
65.2033	-315.6400	-0.5168
65.3043	-315.6400	-0.5178
65.4044	-315.6400	-0.5205
65.5043	-315.6400	-0.5169
65.6046	-315.6400	-0.5199
65.7058	-315.6400	-0.5199
65.8049	-315.6400	-0.5189
65.9055	-315.6400	-0.5175
66.0054	-315.6400	-0.5205
66.1060	-315.6400	-0.5178
66.2065	-315.6400	-0.5163
66.3062	-315.6400	-0.5200
66.4071	-315.6400	-0.5195
66.5070	-315.6400	-0.5178
66.6080	-315.6400	-0.5160
66.7089	-315.6400	-0.5161
66.8104	-315.6400	-0.5177
66.9103	-315.6400	-0.5191
67.0107	-315.6400	-0.5169
67.1102	-315.6400	-0.5170
67.2104	-315.6400	-0.5173
67.3118	-315.6400	-0.5176
67.4113	-315.6400	-0.5164
67.5112	-315.6400	-0.5146
67.6112	-315.6400	-0.5189
67.7119	-315.6400	-0.5160
67.8112	-315.6400	-0.5150
67.9112	-315.6400	-0.5178
68.0116	-315.6400	-0.5158
68.1119	-315.6400	-0.5178
68.2112	-315.6400	-0.5146
68.3113	-315.6400	-0.5149
68.4124	-315.6400	-0.5153
68.5126	-315.6400	-0.5153
68.6124	-315.6400	-0.5135
68.7121	-315.6400	-0.5172
68.8133	-315.6400	-0.5173
68.9130	-315.6400	-0.5150
69.0129	-315.6400	-0.5138
69.1134	-315.6400	-0.5155
69.2132	-315.6400	-0.5160
69.3143	-315.6400	-0.5143
69.4142	-315.6400	-0.5152
69.5155	-315.6400	-0.5140
69.6157	-315.6400	-0.5149
69.7157	-315.6400	-0.5141
69.8153	-315.6400	-0.5151
69.9167	-315.6400	-0.5158
70.0164	-315.6400	-0.5146
70.1178	-315.6400	-0.5166
70.2183	-315.6400	-0.5150
70.3190	-315.6400	-0.5150
70.4203	-315.6400	-0.5152
70.5214	-315.6400	-0.5147
70.6214	-315.6400	-0.5152
70.7215	-315.6400	-0.5162
70.8209	-315.6400	-0.5165
70.9227	-315.6400	-0.5154
71.0225	-315.6400	-0.5160
71.1226	-315.6400	-0.5156
71.2219	-315.6400	-0.5165
71.3235	-315.6400	-0.5167
71.4232	-315.6400	-0.5166
71.5235	-315.6400	-0.5162
71.6230	-315.6400	-0.5167
71.7230	-315.6400	-0.5153
71.8236	-315.6400	-0.5147
71.9234	-315.6400	-0.5155
72.0249	-315.6400	-0.5130
72.1249	-315.6400	-0.5110
72.2250	-315.6400	-0.5113
72.3251	-315.6400	-0.5144
72.4266	-315.6400	-0.5139
72.5269	-315.6400	-0.5119
72.6268	-315.6400	-0.5154
72.7275	-315.6400	-0.5129
72.8277	-315.6400	-0.5107
72.9275	-315.6400	-0.5117
73.0275	-315.6400	-0.5147
73.1275	-315.6400	-0.5129
73.2271	-315.6400	-0.5123
73.3271	-315.6400	-0.5135
73.4279	-315.6400	-0.5153
73.5270	-315.6400	-0.5141
73.6271	-315.6400	-0.5108
73.7281	-315.6400	-0.5136
73.8287	-315.6400	-0.5130
73.9288	-315.6400	-0.5147
74.0284	-315.6400	-0.5120
74.1280	-315.6400	-0.5125
74.2290	-315.6400	-0.5169
74.3308	-315.6400	-0.5132
74.4304	-315.6400	-0.5141
74.5301	-315.6400	-0.5129
74.6310	-315.6400	-0.5140
74.7313	-315.6400	-0.5125
74.8313	-315.6400	-0.5102
74.9312	-315.6400	-0.5133
75.0313	-315.6400	-0.5132
75.1313	-315.6400	-0.5110
75.2311	-315.6400	-0.5121
75.3312	-315.6400	-0.5123
75.4324	-315.6400	-0.5104
75.5326	-315.6400	-0.5113
75.6326	-315.6400	-0.5113
75.7327	-315.6400	-0.5107
75.8333	-315.6400	-0.5087
75.9335	-315.6400	-0.5105
76.0337	-315.6400	-0.5105
76.1332	-315.6400	-0.5116
76.2334	-315.6400	-0.5105
76.3334	-315.6400	-0.5094
76.4333	-315.6400	-0.5111
76.5335	-315.6400	-0.5122
76.6335	-315.6400	-0.5087
76.7336	-315.6400	-0.5099
76.8331	-315.6400	-0.5099
76.9332	-315.6400	-0.5114
77.0336	-315.6400	-0.5112
77.1334	-315.6400	-0.5105
77.2331	-315.6400	-0.5109
77.3331	-315.6400	-0.5075
77.4334	-315.6400	-0.5075
77.5336	-315.6400	-0.5087
77.6336	-315.6400	-0.5074
77.7333	-315.6400	-0.5081
77.8346	-315.6400	-0.5060
77.9356	-315.6400	-0.5095
78.0354	-315.6400	-0.5085
78.1353	-315.6400	-0.5080
78.2354	-315.6400	-0.5083
78.3356	-315.6400	-0.5096
78.4357	-315.6400	-0.5091
78.5362	-315.6400	-0.5090
78.6368	-315.6400	-0.5098
78.7369	-315.6400	-0.5094
78.8366	-315.6400	-0.5094
78.9374	-315.6400	-0.5097
79.0382	-315.6400	-0.5081
79.1384	-315.6400	-0.5086
79.2394	-315.6400	-0.5089
79.3398	-315.6400	-0.5093
79.4391	-315.6400	-0.5087
79.5399	-315.6400	-0.5106
79.6396	-315.6400	-0.5094
79.7394	-315.6400	-0.5097
79.8391	-315.6400	-0.5096
79.9392	-315.6400	-0.5100
80.0401	-315.6400	-0.5087
80.1406	-315.6400	-0.5087
80.2403	-315.6400	-0.5074
80.3408	-315.6400	-0.5068
80.4408	-315.6400	-0.5069
80.5415	-315.6400	-0.5069
80.6413	-315.6400	-0.5062
80.7413	-315.6400	-0.5087
80.8413	-315.6400	-0.5052
80.9413	-315.6400	-0.5061
81.0414	-315.6400	-0.5075
81.1413	-315.6400	-0.5041
81.2414	-315.6400	-0.5039
81.3414	-315.6400	-0.5067
81.4415	-315.6400	-0.5067
81.5415	-315.6400	-0.5090
81.6414	-315.6400	-0.5066
81.7411	-315.6400	-0.5060
81.8414	-315.6400	-0.5069
81.9413	-315.6400	-0.5056
82.0413	-315.6400	-0.5064
82.1414	-315.6400	-0.5053
82.2415	-315.6400	-0.5071
82.3413	-315.6400	-0.5053
82.4418	-315.6400	-0.5057
82.5425	-315.6400	-0.5044
82.6428	-315.6400	-0.5050
82.7421	-315.6400	-0.5042
82.8436	-315.6400	-0.5053
82.9435	-315.6400	-0.5051
83.0436	-315.6400	-0.5047
83.1434	-315.6400	-0.5050
83.2439	-315.6400	-0.5059
83.3431	-315.6400	-0.5057
83.4435	-315.6400	-0.5055
83.5431	-315.6400	-0.5049
83.6437	-315.6400	-0.5037
83.7437	-315.6400	-0.5063
83.8436	-315.6400	-0.5046
83.9430	-315.6400	-0.5064
84.0435	-315.6400	-0.5036
84.1434	-315.6400	-0.5046
84.2436	-315.6400	-0.5024
84.3447	-315.6400	-0.5076
84.4448	-315.6400	-0.5046
84.5445	-315.6400	-0.5078
84.6450	-315.6400	-0.5043
84.7460	-315.6400	-0.5028
84.8458	-315.6400	-0.5041
84.9452	-315.6400	-0.5063
85.0460	-315.6400	-0.5051
85.1454	-315.6400	-0.5041
85.2454	-315.6400	-0.5028
85.3460	-315.6400	-0.5078
85.4464	-315.6400	-0.5045
85.5467	-315.6400	-0.5020
85.6471	-315.6400	-0.5044
85.7471	-315.6400	-0.5049
85.8481	-315.6400	-0.5038
85.9490	-315.6400	-0.5009
86.0486	-315.6400	-0.5008
86.1491	-315.6400	-0.5047
86.2500	-315.6400	-0.5044
86.3500	-315.6400	-0.5041
86.4502	-315.6400	-0.5067
86.5510	-315.6400	-0.5051
86.6510	-315.6400	-0.5070
86.7506	-315.6400	-0.5059
86.8508	-315.6400	-0.5051
86.9509	-315.6400	-0.5054
87.0501	-315.6400	-0.5068
87.1509	-315.6400	-0.5025
87.2507	-315.6400	-0.5049
87.3502	-315.6400	-0.5027
87.4501	-315.6400	-0.5057
87.5520	-315.6400	-0.5034
87.6526	-315.6400	-0.5040
87.7534	-315.6400	-0.5026
87.8536	-315.6400	-0.5044
87.9536	-315.6400	-0.5021
88.0536	-315.6400	-0.5012
88.1538	-315.6400	-0.5022
88.2538	-315.6400	-0.5044
88.3531	-315.6400	-0.5010
88.4537	-315.6400	-0.5031
88.5537	-315.6400	-0.5030
88.6546	-315.6400	-0.5038
88.7556	-315.6400	-0.5018
88.8560	-315.6400	-0.5015
88.9566	-315.6400	-0.5008
89.0571	-315.6400	-0.4989
89.1590	-315.6400	-0.5004
89.2595	-315.6400	-0.5017
89.3602	-315.6400	-0.5022
89.4608	-315.6400	-0.5015
89.5609	-315.6400	-0.5019
89.6605	-315.6400	-0.5004
89.7604	-315.6400	-0.5028
89.8611	-315.6400	-0.5024
89.9617	-315.6400	-0.5002
90.0626	-315.6400	-0.4995
90.1632	-315.6400	-0.5012
90.2642	-315.6400	-0.5028
90.3647	-315.6400	-0.5006
90.4643	-315.6400	-0.4971
90.5653	-315.6400	-0.4997
90.6651	-315.6400	-0.5027
90.7667	-315.6400	-0.5007
90.8664	-315.6400	-0.5008
90.9670	-315.6400	-0.4991
91.0668	-315.6400	-0.5008
91.1672	-315.6400	-0.5018
91.2676	-315.6400	-0.5000
91.3686	-315.6400	-0.4980
91.4686	-315.6400	-0.4995
91.5691	-315.6400	-0.4997
91.6689	-315.6400	-0.5008
91.7699	-315.6400	-0.5026
91.8701	-315.6400	-0.4986
91.9702	-315.6400	-0.5017
92.0717	-315.6400	-0.5012
92.1716	-315.6400	-0.5013
92.2722	-315.6400	-0.5009
92.3738	-315.6400	-0.4989
92.4747	-315.6400	-0.5013
92.5748	-315.6400	-0.5015
92.6756	-315.6400	-0.5003
92.7765	-315.6400	-0.4988
92.8768	-315.6400	-0.4983
92.9773	-315.6400	-0.4976
93.0790	-315.6400	-0.4992
93.1785	-315.6400	-0.4995
93.2798	-315.6400	-0.4988
93.3791	-315.6400	-0.4971
93.4797	-315.6400	-0.5006
93.5795	-315.6400	-0.5003
93.6801	-315.6400	-0.4989
93.7791	-315.6400	-0.4989
93.8797	-315.6400	-0.4984
93.9795	-315.6400	-0.5011
94.0799	-315.6400	-0.4984
94.1809	-315.6400	-0.4989
94.2817	-315.6400	-0.5005
94.3815	-315.6400	-0.5010
94.4814	-315.6400	-0.5003
94.5815	-315.6400	-0.4991
94.6817	-315.6400	-0.4984
94.7815	-315.6400	-0.4981
94.8815	-315.6400	-0.4982
94.9812	-315.6400	-0.4990
95.0815	-315.6400	-0.5006
95.1815	-315.6400	-0.4969
95.2815	-315.6400	-0.4970
95.3818	-315.6400	-0.4982
95.4815	-315.6400	-0.4977
95.5816	-315.6400	-0.4985
95.6819	-315.6400	-0.4956
95.7829	-315.6400	-0.4991
95.8829	-315.6400	-0.4981
95.9831	-315.6400	-0.4986
96.0822	-315.6400	-0.4998
96.1842	-315.6400	-0.4996
96.2846	-315.6400	-0.5006
96.3853	-315.6400	-0.4996
96.4861	-315.6400	-0.4979
96.5864	-315.6400	-0.4957
96.6873	-315.6400	-0.4950
96.7883	-315.6400	-0.4976
96.8888	-315.6400	-0.4954
96.9887	-315.6400	-0.4984
97.0882	-315.6400	-0.4952
97.1884	-315.6400	-0.4971
97.2891	-315.6400	-0.4949
97.3891	-315.6400	-0.4938
97.4891	-315.6400	-0.4964
97.5887	-315.6400	-0.4945
97.6892	-315.6400	-0.4977
97.7888	-315.6400	-0.4968
97.8890	-315.6400	-0.4990
97.9888	-315.6400	-0.4971
98.0892	-315.6400	-0.4964
98.1891	-315.6400	-0.4959
98.2884	-315.6400	-0.4960
98.3883	-315.6400	-0.4950
98.4887	-315.6400	-0.4976
98.5886	-315.6400	-0.4985
98.6893	-315.6400	-0.4954
98.7895	-315.6400	-0.4953
98.8896	-315.6400	-0.4942
98.9902	-315.6400	-0.4986
99.0903	-315.6400	-0.4947
99.1917	-315.6400	-0.4962
99.2926	-315.6400	-0.4972
99.3923	-315.6400	-0.4983
99.4929	-315.6400	-0.4959
99.5927	-315.6400	-0.4949
99.6938	-315.6400	-0.4947
99.7933	-315.6400	-0.4980
99.8936	-315.6400	-0.4969
99.9939	-315.6400	-0.4961
100.0938	-315.6400	-0.4923
100.1936	-315.6400	-0.4909
100.2935	-315.6400	-0.4929
100.3948	-315.6400	-0.4932
100.4945	-315.6400	-0.4927
100.5952	-315.6400	-0.4936
100.6944	-315.6400	-0.4930
100.7948	-315.6400	-0.4948
100.8945	-315.6400	-0.4940
100.9961	-315.6400	-0.4936
101.0958	-315.6400	-0.4965
101.1958	-315.6400	-0.4963
101.2959	-315.6400	-0.4956
101.3955	-315.6400	-0.4945
101.4959	-315.6400	-0.4975
101.5961	-315.6400	-0.4958
101.6958	-315.6400	-0.4953
101.7953	-315.6400	-0.4961
101.8953	-315.6400	-0.4949
101.9959	-315.6400	-0.4928
102.0953	-315.6400	-0.4933
102.1957	-315.6400	-0.4889
102.2963	-315.6400	-0.4941
102.3974	-315.6400	-0.4923
102.4976	-315.6400	-0.4917
102.5984	-315.6400	-0.4919
102.6990	-315.6400	-0.4931
102.7991	-315.6400	-0.4938
102.8991	-315.6400	-0.4943
102.9992	-315.6400	-0.4913
103.0993	-315.6400	-0.4917
103.2000	-315.6400	-0.4932
103.2992	-315.6400	-0.4911
103.3992	-315.6400	-0.4909
103.5003	-315.6400	-0.4936
103.6003	-315.6400	-0.4926
103.7010	-315.6400	-0.4914
103.8007	-315.6400	-0.4899
103.9005	-315.6400	-0.4921
104.0003	-315.6400	-0.4921
104.1003	-315.6400	-0.4912
104.2011	-315.6400	-0.4913
104.3025	-315.6400	-0.4902
104.4031	-315.6400	-0.4904
104.5042	-315.6400	-0.4928
104.6040	-315.6400	-0.4922
104.7036	-315.6400	-0.4934
104.8038	-315.6400	-0.4911
104.9034	-315.6400	-0.4920
105.0038	-315.6400	-0.4927
105.1047	-315.6400	-0.4924
105.2048	-315.6400	-0.4925
105.3045	-315.6400	-0.4929
105.4060	-315.6400	-0.4895
105.5067	-315.6400	-0.4911
105.6075	-315.6400	-0.4911
105.7074	-315.6400	-0.4905
105.8089	-315.6400	-0.4914
105.9090	-315.6400	-0.4905
106.0098	-315.6400	-0.4903
106.1110	-315.6400	-0.4922
106.2106	-315.6400	-0.4924
106.3111	-315.6400	-0.4918
106.4107	-315.6400	-0.4967
106.5113	-315.6400	-0.4924
106.6117	-315.6400	-0.4928
106.7126	-315.6400	-0.4914
106.8127	-315.6400	-0.4891
106.9140	-315.6400	-0.4912
107.0138	-315.6400	-0.4921
107.1139	-315.6400	-0.4931
107.2139	-315.6400	-0.4907
107.3140	-315.6400	-0.4921
107.4136	-315.6400	-0.4909
107.5138	-315.6400	-0.4928
107.6137	-315.6400	-0.4905
107.7136	-315.6400	-0.4895
107.8138	-315.6400	-0.4900
107.9150	-315.6400	-0.4910
108.0148	-315.6400	-0.4912
108.1152	-315.6400	-0.4923
108.2146	-315.6400	-0.4897
108.3148	-315.6400	-0.4885
108.4154	-315.6400	-0.4909
108.5159	-315.6400	-0.4911
108.6156	-315.6400	-0.4903
108.7158	-315.6400	-0.4905
108.8163	-315.6400	-0.4915
108.9170	-315.6400	-0.4920
109.0174	-315.6400	-0.4907
109.1174	-315.6400	-0.4902
109.2174	-315.6400	-0.4909
109.3174	-315.6400	-0.4899
109.4177	-315.6400	-0.4902
109.5183	-315.6400	-0.4917
109.6193	-315.6400	-0.4914
109.7199	-315.6400	-0.4882
109.8197	-315.6400	-0.4881
109.9193	-315.6400	-0.4881
110.0193	-315.6400	-0.4922
110.1197	-315.6400	-0.4911
110.2198	-315.6400	-0.4902
110.3197	-315.6400	-0.4915
110.4193	-315.6400	-0.4926
110.5198	-315.6400	-0.4902
110.6197	-315.6400	-0.4899
110.7198	-315.6400	-0.4918
110.8193	-315.6400	-0.4904
110.9193	-315.6400	-0.4903
111.0203	-315.6400	-0.4920
111.1210	-315.6400	-0.4940
111.2213	-315.6400	-0.4910
111.3220	-315.6400	-0.4914
111.4230	-315.6400	-0.4908
111.5228	-315.6400	-0.4906
111.6227	-315.6400	-0.4889
111.7224	-315.6400	-0.4882
111.8231	-315.6400	-0.4877
111.9239	-315.6400	-0.4903
112.0238	-315.6400	-0.4888
112.1236	-315.6400	-0.4898
112.2241	-315.6400	-0.4906
112.3239	-315.6400	-0.4876
112.4240	-315.6400	-0.4893
112.5238	-315.6400	-0.4883
112.6239	-315.6400	-0.4888
112.7242	-315.6400	-0.4878
112.8238	-315.6400	-0.4881
112.9239	-315.6400	-0.4880
113.0245	-315.6400	-0.4899
113.1250	-315.6400	-0.4903
113.2245	-315.6400	-0.4895
113.3252	-315.6400	-0.4879
113.4247	-315.6400	-0.4891
113.5247	-315.6400	-0.4876
113.6243	-315.6400	-0.4876
113.7252	-315.6400	-0.4869
113.8253	-315.6400	-0.4881
113.9252	-315.6400	-0.4867
114.0244	-315.6400	-0.4879
114.1247	-315.6400	-0.4879
114.2259	-315.6400	-0.4886
114.3259	-315.6400	-0.4892
114.4271	-315.6400	-0.4858
114.5266	-315.6400	-0.4877
114.6270	-315.6400	-0.4895
114.7278	-315.6400	-0.4874
114.8292	-315.6400	-0.4869
114.9293	-315.6400	-0.4856
115.0289	-315.6400	-0.4869
115.1284	-315.6400	-0.4858
115.2292	-315.6400	-0.4869
115.3285	-315.6400	-0.4876
115.4293	-315.6400	-0.4857
115.5288	-315.6400	-0.4851
115.6290	-315.6400	-0.4853
115.7288	-315.6400	-0.4876
115.8292	-315.6400	-0.4860
115.9288	-315.6400	-0.4878
116.0291	-315.6400	-0.4855
116.1295	-315.6400	-0.4858
116.2298	-315.6400	-0.4892
116.3305	-315.6400	-0.4854
116.4316	-315.6400	-0.4841
116.5317	-315.6400	-0.4866
116.6315	-315.6400	-0.4866
116.7317	-315.6400	-0.4860
116.8317	-315.6400	-0.4867
116.9321	-315.6400	-0.4860
117.0319	-315.6400	-0.4857
117.1319	-315.6400	-0.4875
117.2320	-315.6400	-0.4899
117.3317	-315.6400	-0.4879
117.4315	-315.6400	-0.4871
117.5316	-315.6400	-0.4840
117.6316	-315.6400	-0.4835
117.7317	-315.6400	-0.4863
117.8317	-315.6400	-0.4850
117.9317	-315.6400	-0.4843
118.0323	-315.6400	-0.4851
118.1314	-315.6400	-0.4850
118.2316	-315.6400	-0.4857
118.3329	-315.6400	-0.4859
118.4332	-315.6400	-0.4844
118.5328	-315.6400	-0.4856
118.6341	-315.6400	-0.4831
118.7348	-315.6400	-0.4863
118.8352	-315.6400	-0.4859
118.9349	-315.6400	-0.4863
119.0351	-315.6400	-0.4846
119.1351	-315.6400	-0.4851
119.2351	-315.6400	-0.4857
119.3348	-315.6400	-0.4849
119.4352	-315.6400	-0.4837
119.5349	-315.6400	-0.4838
119.6348	-315.6400	-0.4840
119.7347	-315.6400	-0.4835
119.8359	-315.6400	-0.4837
119.9369	-315.6400	-0.4819
120.0370	-315.6400	-0.4833
120.1377	-315.6400	-0.4865
120.2384	-315.6400	-0.4849
120.3399	-315.6400	-0.4836
120.4394	-315.6400	-0.4849
120.5397	-315.6400	-0.4852
120.6396	-315.6400	-0.4865
120.7401	-315.6400	-0.4849
120.8399	-315.6400	-0.4821
120.9410	-315.6400	-0.4849
121.0403	-315.6400	-0.4850
121.1401	-315.6400	-0.4842
121.2411	-315.6400	-0.4860
121.3407	-315.6400	-0.4839
121.4411	-315.6400	-0.4838
121.5416	-315.6400	-0.4826
121.6430	-315.6400	-0.4822
121.7444	-315.6400	-0.4850
121.8457	-315.6400	-0.4863
121.9464	-315.6400	-0.4854
122.0468	-315.6400	-0.4849
122.1469	-315.6400	-0.4843
122.2470	-315.6400	-0.4860
122.3483	-315.6400	-0.4832
122.4480	-315.6400	-0.4848
122.5482	-315.6400	-0.4846
122.6476	-315.6400	-0.4828
122.7491	-315.6400	-0.4848
122.8492	-315.6400	-0.4827
122.9487	-315.6400	-0.4815
123.0489	-315.6400	-0.4828
123.1490	-315.6400	-0.4824
123.2488	-315.6400	-0.4810
123.3488	-315.6400	-0.4804
123.4494	-315.6400	-0.4815
123.5494	-315.6400	-0.4802
123.6494	-315.6400	-0.4804
123.7500	-315.6400	-0.4812
123.8505	-315.6400	-0.4807
123.9515	-315.6400	-0.4811
124.0518	-315.6400	-0.4781
124.1518	-315.6400	-0.4810
124.2518	-315.6400	-0.4803
124.3518	-315.6400	-0.4796
124.4518	-315.6400	-0.4808
124.5531	-315.6400	-0.4804
124.6544	-315.6400	-0.4833
124.7554	-315.6400	-0.4808
124.8555	-315.6400	-0.4804
124.9560	-315.6400	-0.4804
125.0554	-315.6400	-0.4838
125.1569	-315.6400	-0.4814
125.2569	-315.6400	-0.4808
125.3573	-315.6400	-0.4822
125.4573	-315.6400	-0.4823
125.5571	-315.6400	-0.4803
125.6574	-315.6400	-0.4797
125.7581	-315.6400	-0.4791
125.8579	-315.6400	-0.4819
125.9578	-315.6400	-0.4795
126.0583	-315.6400	-0.4790
126.1579	-315.6400	-0.4809
126.2575	-315.6400	-0.4811
126.3582	-315.6400	-0.4801
126.4579	-315.6400	-0.4800
126.5582	-315.6400	-0.4789
126.6589	-315.6400	-0.4792
126.7591	-315.6400	-0.4832
126.8594	-315.6400	-0.4789
126.9596	-315.6400	-0.4796
127.0600	-315.6400	-0.4801
127.1603	-315.6400	-0.4785
127.2596	-315.6400	-0.4800
127.3604	-315.6400	-0.4798
127.4601	-315.6400	-0.4784
127.5595	-315.6400	-0.4776
127.6602	-315.6400	-0.4782
127.7595	-315.6400	-0.4777
127.8598	-315.6400	-0.4783
127.9608	-315.6400	-0.4781
128.0609	-315.6400	-0.4784
128.1616	-315.6400	-0.4799
128.2615	-315.6400	-0.4778
128.3630	-315.6400	-0.4782
128.4639	-315.6400	-0.4777
128.5654	-315.6400	-0.4776
128.6650	-315.6400	-0.4762
128.7655	-315.6400	-0.4771
128.8658	-315.6400	-0.4768
128.9655	-315.6400	-0.4772
129.0662	-315.6400	-0.4755
129.1662	-315.6400	-0.4775
129.2655	-315.6400	-0.4763
129.3659	-315.6400	-0.4763
129.4655	-315.6400	-0.4772
129.5655	-315.6400	-0.4775
129.6658	-315.6400	-0.4769
129.7660	-315.6400	-0.4776
129.8655	-315.6400	-0.4764
129.9665	-315.6400	-0.4755
130.0674	-315.6400	-0.4749
130.1680	-315.6400	-0.4769
130.2686	-315.6400	-0.4783
130.3696	-315.6400	-0.4804
130.4701	-315.6400	-0.4788
130.5710	-315.6400	-0.4793
130.6708	-315.6400	-0.4772
130.7722	-315.6400	-0.4797
130.8730	-315.6400	-0.4797
130.9726	-315.6400	-0.4788
131.0734	-315.6400	-0.4796
131.1732	-315.6400	-0.4794
131.2730	-315.6400	-0.4812
131.3730	-315.6400	-0.4785
131.4731	-315.6400	-0.4774
131.5727	-315.6400	-0.4825
131.6739	-315.6400	-0.4783
131.7740	-315.6400	-0.4824
131.8738	-315.6400	-0.4799
131.9738	-315.6400	-0.4806
132.0739	-315.6400	-0.4776
132.1742	-315.6400	-0.4790
132.2739	-315.6400	-0.4793
132.3742	-315.6400	-0.4796
132.4742	-315.6400	-0.4791
132.5742	-315.6400	-0.4778
132.6740	-315.6400	-0.4773
132.7742	-315.6400	-0.4782
132.8754	-315.6400	-0.4757
132.9749	-315.6400	-0.4784
133.0746	-315.6400	-0.4781
133.1749	-315.6400	-0.4799
133.2752	-315.6400	-0.4778
133.3751	-315.6400	-0.4782
133.4745	-315.6400	-0.4781
133.5763	-315.6400	-0.4792
133.6763	-315.6400	-0.4778
133.7759	-315.6400	-0.4771
133.8760	-315.6400	-0.4792
133.9762	-315.6400	-0.4781
134.0762	-315.6400	-0.4762
134.1765	-315.6400	-0.4757
134.2758	-315.6400	-0.4782
134.3764	-315.6400	-0.4778
134.4760	-315.6400	-0.4776
134.5761	-315.6400	-0.4773
134.6764	-315.6400	-0.4748
134.7759	-315.6400	-0.4748
134.8771	-315.6400	-0.4755
134.9771	-315.6400	-0.4755
135.0770	-315.6400	-0.4760
135.1769	-315.6400	-0.4747
135.2769	-315.6400	-0.4759
135.3770	-315.6400	-0.4764
135.4771	-315.6400	-0.4755
135.5768	-315.6400	-0.4785
135.6769	-315.6400	-0.4778
135.7780	-315.6400	-0.4808
135.8781	-315.6400	-0.4775
135.9779	-315.6400	-0.4774
136.0792	-315.6400	-0.4738
136.1803	-315.6400	-0.4775
136.2811	-315.6400	-0.4727
136.3824	-315.6400	-0.4749
136.4818	-315.6400	-0.4750
136.5816	-315.6400	-0.4751
136.6820	-315.6400	-0.4752
136.7819	-315.6400	-0.4760
136.8820	-315.6400	-0.4759
136.9832	-315.6400	-0.4754
137.0837	-315.6400	-0.4762
137.1841	-315.6400	-0.4739
137.2838	-315.6400	-0.4758
137.3836	-315.6400	-0.4742
137.4841	-315.6400	-0.4757
137.5843	-315.6400	-0.4728
137.6845	-315.6400	-0.4716
137.7835	-315.6400	-0.4723
137.8848	-315.6400	-0.4748
137.9856	-315.6400	-0.4745
138.0860	-315.6400	-0.4749
138.1857	-315.6400	-0.4742
138.2864	-315.6400	-0.4743
138.3861	-315.6400	-0.4750
138.4858	-315.6400	-0.4754
138.5856	-315.6400	-0.4761
138.6863	-315.6400	-0.4765
138.7865	-315.6400	-0.4755
138.8869	-315.6400	-0.4754
138.9866	-315.6400	-0.4751
139.0874	-315.6400	-0.4755
139.1871	-315.6400	-0.4762
139.2868	-315.6400	-0.4785
139.3883	-315.6400	-0.4757
139.4881	-315.6400	-0.4778
139.5881	-315.6400	-0.4743
139.6887	-315.6400	-0.4736
139.7905	-315.6400	-0.4762
139.8898	-315.6400	-0.4763
139.9898	-315.6400	-0.4758
140.0915	-315.6400	-0.4743
140.1916	-315.6400	-0.4756
140.2935	-315.6400	-0.4751
140.3927	-315.6400	-0.4757
140.4929	-315.6400	-0.4755
140.5926	-315.6400	-0.4772
140.6933	-315.6400	-0.4730
140.7944	-315.6400	-0.4764
140.8943	-315.6400	-0.4763
140.9937	-315.6400	-0.4744
141.0940	-315.6400	-0.4755
141.1943	-315.6400	-0.4786
141.2951	-315.6400	-0.4748
141.3963	-315.6400	-0.4719
141.4958	-315.6400	-0.4724
141.5961	-315.6400	-0.4757
141.6960	-315.6400	-0.4739
141.7966	-315.6400	-0.4753
141.8965	-315.6400	-0.4733
141.9960	-315.6400	-0.4765
142.0962	-315.6400	-0.4724
142.1960	-315.6400	-0.4729
142.2968	-315.6400	-0.4736
142.3972	-315.6400	-0.4733
142.4973	-315.6400	-0.4731
142.5974	-315.6400	-0.4744
142.6970	-315.6400	-0.4742
142.7971	-315.6400	-0.4731
142.8971	-315.6400	-0.4730
142.9974	-315.6400	-0.4731
143.0980	-315.6400	-0.4776
143.1980	-315.6400	-0.4733
143.2985	-315.6400	-0.4735
143.3992	-315.6400	-0.4736
143.4995	-315.6400	-0.4744
143.5992	-315.6400	-0.4764
143.6989	-315.6400	-0.4736
143.8000	-315.6400	-0.4732
143.9010	-315.6400	-0.4736
144.0013	-315.6400	-0.4732
144.1008	-315.6400	-0.4695
144.2013	-315.6400	-0.4734
144.3013	-315.6400	-0.4729
144.4008	-315.6400	-0.4751
144.5012	-315.6400	-0.4728
144.6008	-315.6400	-0.4718
144.7017	-315.6400	-0.4734
144.8036	-315.6400	-0.4711
144.9026	-315.6400	-0.4713
145.0035	-315.6400	-0.4725
145.1041	-315.6400	-0.4749
145.2041	-315.6400	-0.4720
145.3048	-315.6400	-0.4723
145.4056	-315.6400	-0.4736
145.5055	-315.6400	-0.4718
145.6062	-315.6400	-0.4702
145.7062	-315.6400	-0.4707
145.8061	-315.6400	-0.4738
145.9067	-315.6400	-0.4728
146.0076	-315.6400	-0.4719
146.1074	-315.6400	-0.4736
146.2067	-315.6400	-0.4752
146.3071	-315.6400	-0.4731
146.4071	-315.6400	-0.4696
146.5073	-315.6400	-0.4720
146.6072	-315.6400	-0.4711
146.7071	-315.6400	-0.4709
146.8074	-315.6400	-0.4702
146.9075	-315.6400	-0.4712
147.0077	-315.6400	-0.4719
147.1085	-315.6400	-0.4716
147.2078	-315.6400	-0.4711
147.3089	-315.6400	-0.4728
147.4092	-315.6400	-0.4730
147.5088	-315.6400	-0.4718
147.6105	-315.6400	-0.4710
147.7101	-315.6400	-0.4709
147.8097	-315.6400	-0.4699
147.9102	-315.6400	-0.4709
148.0101	-315.6400	-0.4710
148.1115	-315.6400	-0.4676
148.2115	-315.6400	-0.4691
148.3107	-315.6400	-0.4725
148.4115	-315.6400	-0.4718
148.5127	-315.6400	-0.4725
148.6133	-315.6400	-0.4717
148.7146	-315.6400	-0.4703
148.8139	-315.6400	-0.4701
148.9156	-315.6400	-0.4705
149.0152	-315.6400	-0.4682
149.1161	-315.6400	-0.4686
149.2172	-315.6400	-0.4712
149.3166	-315.6400	-0.4716
149.4173	-315.6400	-0.4705
149.5175	-315.6400	-0.4700
149.6175	-315.6400	-0.4720
149.7176	-315.6400	-0.4705
149.8179	-315.6400	-0.4682
149.9189	-315.6400	-0.4675
150.0193	-315.6400	-0.4697
150.1193	-315.6400	-0.4698
150.2189	-315.6400	-0.4699
150.3192	-315.6400	-0.4700
150.4193	-315.6400	-0.4707
150.5192	-315.6400	-0.4691
150.6190	-315.6400	-0.4699
150.7197	-315.6400	-0.4717
150.8203	-315.6400	-0.4700
150.9201	-315.6400	-0.4699
151.0201	-315.6400	-0.4700
151.1206	-315.6400	-0.4695
151.2203	-315.6400	-0.4729
151.3202	-315.6400	-0.4710
151.4209	-315.6400	-0.4674
151.5217	-315.6400	-0.4680
151.6217	-315.6400	-0.4693
151.7234	-315.6400	-0.4691
151.8247	-315.6400	-0.4723
151.9249	-315.6400	-0.4712
152.0247	-315.6400	-0.4695
152.1248	-315.6400	-0.4690
152.2263	-315.6400	-0.4690
152.3262	-315.6400	-0.4673
152.4257	-315.6400	-0.4688
152.5267	-315.6400	-0.4683
152.6269	-315.6400	-0.4681
152.7282	-315.6400	-0.4686
152.8307	-315.6400	-0.4675
152.9294	-315.6400	-0.4676
153.0294	-315.6400	-0.4666
153.1302	-315.6400	-0.4661
153.2301	-315.6400	-0.4687
153.3298	-315.6400	-0.4666
153.4314	-315.6400	-0.4688
153.5311	-315.6400	-0.4711
153.6312	-315.6400	-0.4703
153.7314	-315.6400	-0.4675
153.8313	-315.6400	-0.4693
153.9319	-315.6400	-0.4697
154.0321	-315.6400	-0.4663
154.1336	-315.6400	-0.4676
154.2332	-315.6400	-0.4685
154.3347	-315.6400	-0.4732
154.4341	-315.6400	-0.4695
154.5340	-315.6400	-0.4684
154.6342	-315.6400	-0.4693
154.7340	-315.6400	-0.4689
154.8341	-315.6400	-0.4678
154.9344	-315.6400	-0.4705
155.0343	-315.6400	-0.4688
155.1342	-315.6400	-0.4677
155.2352	-315.6400	-0.4703
155.3355	-315.6400	-0.4696
155.4351	-315.6400	-0.4702
155.5348	-315.6400	-0.4693
155.6347	-315.6400	-0.4673
155.7362	-315.6400	-0.4720
155.8368	-315.6400	-0.4674
155.9370	-315.6400	-0.4669
156.0387	-315.6400	-0.4691
156.1385	-315.6400	-0.4673
156.2388	-315.6400	-0.4692
156.3393	-315.6400	-0.4676
156.4397	-315.6400	-0.4699
156.5388	-315.6400	-0.4694
156.6393	-315.6400	-0.4697
156.7391	-315.6400	-0.4674
156.8398	-315.6400	-0.4689
156.9406	-315.6400	-0.4687
157.0397	-315.6400	-0.4670
157.1404	-315.6400	-0.4684
157.2413	-315.6400	-0.4686
157.3411	-315.6400	-0.4690
157.4413	-315.6400	-0.4679
157.5415	-315.6400	-0.4664
157.6410	-315.6400	-0.4654
157.7408	-315.6400	-0.4677
157.8426	-315.6400	-0.4662
157.9419	-315.6400	-0.4659
158.0423	-315.6400	-0.4645
158.1431	-315.6400	-0.4641
158.2433	-315.6400	-0.4666
158.3442	-315.6400	-0.4651
158.4465	-315.6400	-0.4658
158.5466	-315.6400	-0.4691
158.6468	-315.6400	-0.4680
158.7469	-315.6400	-0.4641
158.8476	-315.6400	-0.4659
158.9468	-315.6400	-0.4651
159.0472	-315.6400	-0.4668
159.1470	-315.6400	-0.4625
159.2475	-315.6400	-0.4668
159.3470	-315.6400	-0.4649
159.4486	-315.6400	-0.4666
159.5484	-315.6400	-0.4626
159.6481	-315.6400	-0.4659
159.7484	-315.6400	-0.4693
159.8483	-315.6400	-0.4667
159.9478	-315.6400	-0.4653
160.0486	-315.6400	-0.4648
160.1478	-315.6400	-0.4655
160.2481	-315.6400	-0.4671
160.3479	-315.6400	-0.4674
160.4489	-315.6400	-0.4696
160.5494	-315.6400	-0.4655
160.6490	-315.6400	-0.4679
160.7498	-315.6400	-0.4656
160.8498	-315.6400	-0.4681
160.9503	-315.6400	-0.4653
161.0502	-315.6400	-0.4666
161.1498	-315.6400	-0.4653
161.2502	-315.6400	-0.4660
161.3503	-315.6400	-0.4638
161.4499	-315.6400	-0.4644
161.5505	-315.6400	-0.4650
161.6498	-315.6400	-0.4657
161.7504	-315.6400	-0.4652
161.8509	-315.6400	-0.4638
161.9518	-315.6400	-0.4652
162.0522	-315.6400	-0.4679
162.1522	-315.6400	-0.4656
162.2528	-315.6400	-0.4652
162.3521	-315.6400	-0.4658
162.4529	-315.6400	-0.4659
162.5535	-315.6400	-0.4663
162.6528	-315.6400	-0.4656
162.7528	-315.6400	-0.4666
162.8535	-315.6400	-0.4659
162.9536	-315.6400	-0.4648
163.0531	-315.6400	-0.4651
163.1537	-315.6400	-0.4661
163.2534	-315.6400	-0.4656
163.3536	-315.6400	-0.4623
163.4542	-315.6400	-0.4652
163.5544	-315.6400	-0.4665
163.6543	-315.6400	-0.4663
163.7546	-315.6400	-0.4632
163.8546	-315.6400	-0.4677
163.9545	-315.6400	-0.4642
164.0542	-315.6400	-0.4648
164.1544	-315.6400	-0.4625
164.2539	-315.6400	-0.4626
164.3545	-315.6400	-0.4630
164.4543	-315.6400	-0.4673
164.5541	-315.6400	-0.4650
164.6545	-315.6400	-0.4632
164.7540	-315.6400	-0.4672
164.8555	-315.6400	-0.4624
164.9554	-315.6400	-0.4646
165.0563	-315.6400	-0.4677
165.1559	-315.6400	-0.4667
165.2561	-315.6400	-0.4661
165.3563	-315.6400	-0.4649
165.4568	-315.6400	-0.4663
165.5578	-315.6400	-0.4684
165.6570	-315.6400	-0.4656
165.7579	-315.6400	-0.4656
165.8588	-315.6400	-0.4646
165.9593	-315.6400	-0.4648
166.0591	-315.6400	-0.4641
166.1598	-315.6400	-0.4667
166.2598	-315.6400	-0.4615
166.3594	-315.6400	-0.4640
166.4591	-315.6400	-0.4658
166.5597	-315.6400	-0.4639
166.6590	-315.6400	-0.4646
166.7590	-315.6400	-0.4634
166.8602	-315.6400	-0.4632
166.9606	-315.6400	-0.4640
167.0603	-315.6400	-0.4641
167.1613	-315.6400	-0.4638
167.2615	-315.6400	-0.4616
167.3613	-315.6400	-0.4662
167.4618	-315.6400	-0.4641
167.5622	-315.6400	-0.4641
167.6622	-315.6400	-0.4633
167.7625	-315.6400	-0.4648
167.8620	-315.6400	-0.4632
167.9625	-315.6400	-0.4616
168.0628	-315.6400	-0.4622
168.1622	-315.6400	-0.4646
168.2618	-315.6400	-0.4639
168.3622	-315.6400	-0.4642
168.4622	-315.6400	-0.4605
168.5622	-315.6400	-0.4638
168.6621	-315.6400	-0.4625
168.7620	-315.6400	-0.4644
168.8622	-315.6400	-0.4627
168.9632	-315.6400	-0.4648
169.0642	-315.6400	-0.4643
169.1645	-315.6400	-0.4614
169.2645	-315.6400	-0.4652
169.3645	-315.6400	-0.4636
169.4646	-315.6400	-0.4633
169.5656	-315.6400	-0.4626
169.6652	-315.6400	-0.4640
169.7661	-315.6400	-0.4641
169.8660	-315.6400	-0.4651
169.9670	-315.6400	-0.4634
170.0686	-315.6400	-0.4681
170.1683	-315.6400	-0.4622
170.2686	-315.6400	-0.4618
170.3687	-315.6400	-0.4618
170.4682	-315.6400	-0.4652
170.5681	-315.6400	-0.4637
170.6679	-315.6400	-0.4622
170.7684	-315.6400	-0.4617
170.8685	-315.6400	-0.4644
170.9689	-315.6400	-0.4632
171.0690	-315.6400	-0.4633
171.1699	-315.6400	-0.4638
171.2701	-315.6400	-0.4663
171.3713	-315.6400	-0.4617
171.4714	-315.6400	-0.4629
171.5723	-315.6400	-0.4623
171.6722	-315.6400	-0.4655
171.7719	-315.6400	-0.4629
171.8724	-315.6400	-0.4643
171.9722	-315.6400	-0.4639
172.0734	-315.6400	-0.4599
172.1735	-315.6400	-0.4617
172.2732	-315.6400	-0.4614
172.3743	-315.6400	-0.4657
172.4741	-315.6400	-0.4644
172.5749	-315.6400	-0.4640
172.6758	-315.6400	-0.4639
172.7755	-315.6400	-0.4638
172.8765	-315.6400	-0.4630
172.9766	-315.6400	-0.4616
173.0766	-315.6400	-0.4634
173.1762	-315.6400	-0.4611
173.2760	-315.6400	-0.4624
173.3764	-315.6400	-0.4622
173.4777	-315.6400	-0.4623
173.5772	-315.6400	-0.4623
173.6776	-315.6400	-0.4625
173.7770	-315.6400	-0.4620
173.8774	-315.6400	-0.4620
173.9773	-315.6400	-0.4634
174.0778	-315.6400	-0.4613
174.1779	-315.6400	-0.4610
174.2784	-315.6400	-0.4635
174.3792	-315.6400	-0.4627
174.4794	-315.6400	-0.4618
174.5793	-315.6400	-0.4615
174.6796	-315.6400	-0.4632
174.7798	-315.6400	-0.4609
174.8799	-315.6400	-0.4613
174.9800	-315.6400	-0.4571
175.0815	-315.6400	-0.4615
175.1812	-315.6400	-0.4607
175.2817	-315.6400	-0.4628
175.3811	-315.6400	-0.4613
175.4828	-315.6400	-0.4643
175.5826	-315.6400	-0.4615
175.6821	-315.6400	-0.4589
175.7825	-315.6400	-0.4628
175.8822	-315.6400	-0.4629
175.9823	-315.6400	-0.4641
176.0822	-315.6400	-0.4624
176.1836	-315.6400	-0.4600
176.2848	-315.6400	-0.4630
176.3846	-315.6400	-0.4610
176.4844	-315.6400	-0.4616
176.5846	-315.6400	-0.4618
176.6847	-315.6400	-0.4624
176.7846	-315.6400	-0.4630
176.8845	-315.6400	-0.4628
176.9847	-315.6400	-0.4619
177.0843	-315.6400	-0.4620
177.1841	-315.6400	-0.4587
177.2841	-315.6400	-0.4604
177.3843	-315.6400	-0.4601
177.4845	-315.6400	-0.4612
177.5849	-315.6400	-0.4608
177.6847	-315.6400	-0.4582
177.7845	-315.6400	-0.4617
177.8844	-315.6400	-0.4609
177.9847	-315.6400	-0.4595
178.0840	-315.6400	-0.4593
178.1856	-315.6400	-0.4582
178.2854	-315.6400	-0.4603
178.3863	-315.6400	-0.4595
178.4860	-315.6400	-0.4617
178.5860	-315.6400	-0.4604
178.6863	-315.6400	-0.4612
178.7875	-315.6400	-0.4602
178.8879	-315.6400	-0.4623
178.9871	-315.6400	-0.4590
179.0886	-315.6400	-0.4606
179.1884	-315.6400	-0.4591
179.2894	-315.6400	-0.4627
179.3899	-315.6400	-0.4599
179.4895	-315.6400	-0.4608
179.5903	-315.6400	-0.4622
179.6903	-315.6400	-0.4635
179.7913	-315.6400	-0.4623
179.8916	-315.6400	-0.4617
179.9914	-315.6400	-0.4616
180.0920	-315.6400	-0.4610
180.1924	-315.6400	-0.4613
180.2923	-315.6400	-0.4606
180.3935	-315.6400	-0.4590
180.4953	-315.6400	-0.4600
180.5943	-315.6400	-0.4602
180.6956	-315.6400	-0.4592
180.7956	-315.6400	-0.4633
180.8953	-315.6400	-0.4607
180.9954	-315.6400	-0.4580
181.0953	-315.6400	-0.4569
181.1956	-315.6400	-0.4585
181.2959	-315.6400	-0.4600
181.3956	-315.6400	-0.4611
181.4953	-315.6400	-0.4611
181.5959	-315.6400	-0.4607
181.6958	-315.6400	-0.4592
181.7954	-315.6400	-0.4593
181.8953	-315.6400	-0.4585
181.9956	-315.6400	-0.4597
182.0959	-315.6400	-0.4591
182.1962	-315.6400	-0.4592
182.2961	-315.6400	-0.4589
182.3980	-315.6400	-0.4585
182.4991	-315.6400	-0.4589
182.6004	-315.6400	-0.4598
182.7005	-315.6400	-0.4592
182.8007	-315.6400	-0.4605
182.9001	-315.6400	-0.4609
183.0008	-315.6400	-0.4596
183.1008	-315.6400	-0.4611
183.2005	-315.6400	-0.4605
183.3004	-315.6400	-0.4601
183.4005	-315.6400	-0.4610
183.5005	-315.6400	-0.4596
183.6002	-315.6400	-0.4596
183.7008	-315.6400	-0.4598
183.8004	-315.6400	-0.4595
183.9006	-315.6400	-0.4592
184.0000	-315.6400	-0.4594
184.1007	-315.6400	-0.4600
184.2004	-315.6400	-0.4573
184.3005	-315.6400	-0.4593
184.4004	-315.6400	-0.4578
184.5001	-315.6400	-0.4587
184.6008	-315.6400	-0.4578
184.7004	-315.6400	-0.4573
184.8005	-315.6400	-0.4575
184.9010	-315.6400	-0.4576
185.0012	-315.6400	-0.4562
185.1013	-315.6400	-0.4591
185.2019	-315.6400	-0.4583
185.3017	-315.6400	-0.4589
185.4017	-315.6400	-0.4568
185.5023	-315.6400	-0.4584
185.6038	-315.6400	-0.4597
185.7039	-315.6400	-0.4561
185.8041	-315.6400	-0.4584
185.9048	-315.6400	-0.4575
186.0043	-315.6400	-0.4574
186.1051	-315.6400	-0.4578
186.2058	-315.6400	-0.4560
186.3053	-315.6400	-0.4586
186.4056	-315.6400	-0.4548
186.5051	-315.6400	-0.4590
186.6074	-315.6400	-0.4600
186.7084	-315.6400	-0.4582
186.8098	-315.6400	-0.4579
186.9102	-315.6400	-0.4589
187.0109	-315.6400	-0.4587
187.1117	-315.6400	-0.4586
187.2111	-315.6400	-0.4563
187.3119	-315.6400	-0.4561
187.4116	-315.6400	-0.4594
187.5125	-315.6400	-0.4583
187.6121	-315.6400	-0.4566
187.7125	-315.6400	-0.4565
187.8123	-315.6400	-0.4584
187.9137	-315.6400	-0.4561
188.0136	-315.6400	-0.4583
188.1138	-315.6400	-0.4583
188.2139	-315.6400	-0.4577
188.3145	-315.6400	-0.4598
188.4154	-315.6400	-0.4600
188.5152	-315.6400	-0.4572
188.6153	-315.6400	-0.4599
188.7166	-315.6400	-0.4595
188.8162	-315.6400	-0.4583
188.9168	-315.6400	-0.4587
189.0162	-315.6400	-0.4602
189.1172	-315.6400	-0.4592
189.2176	-315.6400	-0.4604
189.3196	-315.6400	-0.4582
189.4187	-315.6400	-0.4580
189.5185	-315.6400	-0.4567
189.6182	-315.6400	-0.4582
189.7183	-315.6400	-0.4585
189.8192	-315.6400	-0.4568
189.9190	-315.6400	-0.4562
190.0200	-315.6400	-0.4596
190.1206	-315.6400	-0.4583
190.2211	-315.6400	-0.4580
190.3222	-315.6400	-0.4594
190.4220	-315.6400	-0.4547
190.5224	-315.6400	-0.4562
190.6224	-315.6400	-0.4577
190.7224	-315.6400	-0.4550
190.8223	-315.6400	-0.4572
190.9230	-315.6400	-0.4559
191.0227	-315.6400	-0.4578
191.1222	-315.6400	-0.4586
191.2223	-315.6400	-0.4583
191.3224	-315.6400	-0.4605
191.4228	-315.6400	-0.4594
191.5226	-315.6400	-0.4562
191.6222	-315.6400	-0.4582
191.7222	-315.6400	-0.4563
191.8237	-315.6400	-0.4563
191.9237	-315.6400	-0.4556
192.0248	-315.6400	-0.4551
192.1248	-315.6400	-0.4588
192.2243	-315.6400	-0.4551
192.3245	-315.6400	-0.4573
192.4248	-315.6400	-0.4596
192.5248	-315.6400	-0.4563
192.6247	-315.6400	-0.4575
192.7251	-315.6400	-0.4552
192.8260	-315.6400	-0.4574
192.9261	-315.6400	-0.4564
193.0268	-315.6400	-0.4583
193.1261	-315.6400	-0.4563
193.2268	-315.6400	-0.4562
193.3265	-315.6400	-0.4579
193.4266	-315.6400	-0.4582
193.5263	-315.6400	-0.4574
193.6281	-315.6400	-0.4584
193.7292	-315.6400	-0.4590
193.8297	-315.6400	-0.4580
193.9294	-315.6400	-0.4573
194.0299	-315.6400	-0.4584
194.1301	-315.6400	-0.4575
194.2295	-315.6400	-0.4579
194.3295	-315.6400	-0.4585
194.4296	-315.6400	-0.4569
194.5310	-315.6400	-0.4565
194.6318	-315.6400	-0.4576
194.7312	-315.6400	-0.4562
194.8328	-315.6400	-0.4569
194.9325	-315.6400	-0.4542
195.0330	-315.6400	-0.4558
195.1334	-315.6400	-0.4576
195.2339	-315.6400	-0.4542
195.3336	-315.6400	-0.4546
195.4335	-315.6400	-0.4552
195.5342	-315.4800	-0.4572
195.6546	-315.0990	-0.4561
195.7546	-314.4140	-0.4547
195.8548	-313.7650	-0.4541
195.9544	-313.0810	-0.4535
196.0545	-312.4310	-0.1893
196.1545	-311.7470	0.9704
196.2549	-311.0640	1.5247
196.3542	-310.4140	1.7723
196.4552	-309.7300	1.8787
196.5568	-309.0810	1.9304
196.6576	-308.3970	1.9529
196.7573	-307.7480	1.9570
196.8574	-307.0640	1.9465
196.9576	-306.4150	1.9249
197.0584	-305.7310	1.8934
197.1586	-305.0480	1.8591
197.2587	-304.3990	1.8233
197.3595	-303.7150	1.7872
197.4589	-303.0650	1.7497
197.5584	-302.3820	1.7115
197.6590	-301.7330	1.6765
197.7596	-301.0490	1.6434
197.8597	-300.3990	1.6073
197.9592	-299.7160	1.5741
198.0601	-299.0320	1.5459
198.1592	-298.3830	1.5161
198.2593	-297.7330	1.4856
198.3598	-297.0480	1.4588
198.4598	-296.3980	1.4321
198.5596	-295.7140	1.4157
198.6593	-295.0650	1.3878
198.7606	-294.3810	1.3690
198.8614	-293.6970	1.3558
198.9615	-293.0480	1.3349
199.0621	-292.3650	1.3165
199.1612	-291.7150	1.3080
199.2613	-291.0320	1.2937
199.3621	-290.3830	1.2784
199.4618	-289.6990	1.2670
199.5626	-289.0490	1.2576
199.6636	-288.3660	1.2481
199.7633	-287.6820	1.2395
199.8632	-287.0330	1.2279
199.9637	-286.3490	1.2214
200.0643	-285.6660	1.2203
200.1646	-285.0160	1.2089
200.2658	-284.3330	1.2005
200.3652	-283.6830	1.1966
200.4659	-282.9990	1.1941
200.5654	-282.3500	1.1892
200.6652	-281.6660	1.1815
200.7656	-281.0170	1.1770
200.8658	-280.3340	1.1779
200.9653	-279.6840	1.1766
201.0652	-279.0010	1.1701
201.1657	-278.3510	1.1644
201.2660	-277.6680	1.1656
201.3656	-277.0180	1.1666
201.4657	-276.3340	1.1658
201.5658	-275.6850	1.1592
201.6667	-275.0010	1.1596
201.7665	-274.3520	1.1636
201.8666	-273.6680	1.1652
201.9680	-272.9850	1.1646
202.0675	-272.3360	1.1726
202.1672	-271.6860	1.1699
202.2681	-271.0020	1.1824
202.3684	-270.3190	1.1904
202.4686	-269.6700	1.1957
202.5691	-268.9860	1.2040
202.6697	-268.3370	1.2171
202.7697	-267.6530	1.2243
202.8692	-267.0030	1.2336
202.9697	-266.3170	1.2455
203.0700	-265.6930	1.2555
203.1707	-265.6390	1.2642
203.2704	-265.6390	1.2735
203.3707	-265.6390	1.2843
203.4707	-265.6390	1.2888
203.5706	-265.6390	1.2799
203.6702	-265.6390	1.3007
203.7708	-265.6390	1.3003
203.8709	-265.6400	1.3028
203.9708	-265.6400	1.2990
204.0702	-265.6400	1.3022
204.1702	-265.6400	1.2999
204.2713	-265.6400	1.3006
204.3717	-265.6400	1.2996
204.4720	-265.6400	1.3021
204.5716	-265.6400	1.3004
204.6714	-265.6400	1.3005
204.7719	-265.6400	1.3026
204.8726	-265.6400	1.3016
204.9728	-265.6400	1.3017
205.0738	-265.6400	1.2986
205.1738	-265.6400	1.3019
205.2736	-265.6400	1.2988
205.3732	-265.6400	1.3016
205.4739	-265.6400	1.2990
205.5737	-265.6400	1.3018
205.6736	-265.6400	1.2999
205.7736	-265.4960	1.3013
205.8942	-265.0820	1.3013
205.9940	-264.4310	1.2989
206.0944	-263.7480	1.2966
206.1945	-263.0980	1.3006
206.2948	-262.4140	1.3095
206.3946	-261.7300	1.3136
206.4949	-261.0810	1.3132
206.5943	-260.3970	1.3249
206.6949	-259.7480	1.3315
206.7950	-259.0640	1.3423
206.8949	-258.4140	1.3531
206.9949	-257.7310	1.3597
207.0949	-257.0810	1.3701
207.1959	-256.3980	1.3799
207.2954	-255.7490	1.3851
207.3960	-255.0650	1.3885
207.4959	-254.4150	1.3890
207.5956	-253.7320	1.3865
207.6963	-253.0480	1.3844
207.7972	-252.3990	1.3886
207.8975	-251.7150	1.3904
207.9973	-251.0660	1.3883
208.0978	-250.3820	1.3896
208.1977	-249.7330	1.3910
208.2986	-249.0490	1.3928
208.3983	-248.4000	1.3926
208.4987	-247.7160	1.3944
208.5987	-247.0670	1.3960
208.6996	-246.3810	1.3943
208.7999	-245.6970	1.3968
208.9008	-245.0480	1.3980
209.0010	-244.3650	1.3998
209.1006	-243.7150	1.4019
209.2003	-243.0310	1.4031
209.3010	-242.3820	1.4013
209.4011	-241.6980	1.4016
209.5006	-241.0490	1.3988
209.6007	-240.3650	1.3971
209.7010	-239.7150	1.3994
209.8017	-239.0300	1.3967
209.9030	-238.3460	1.3996
210.0040	-237.6620	1.3969
210.1048	-237.0130	1.3944
210.2066	-236.3290	1.3959
210.3077	-235.6460	1.3923
210.4077	-234.9970	1.3960
210.5080	-234.3130	1.3965
210.6082	-233.6640	1.3934
210.7076	-232.9800	1.3932
210.8086	-232.3310	1.3947
210.9089	-231.6470	1.3938
211.0097	-230.9630	1.3927
211.1107	-230.3140	1.3938
211.2104	-229.6300	1.3943
211.3103	-228.9810	1.3893
211.4106	-228.2970	1.3906
211.5104	-227.6480	1.3913
211.6117	-226.9640	1.3912
211.7119	-226.3150	1.3911
211.8123	-225.6310	1.3938
211.9128	-224.9470	1.3940
212.0127	-224.2980	1.3940
212.1126	-223.6140	1.3924
212.2126	-222.9650	1.3900
212.3141	-222.2820	1.3890
212.4142	-221.6320	1.3898
212.5137	-220.9490	1.3887
212.6133	-220.2650	1.3886
212.7138	-219.6160	1.3905
212.8135	-218.9660	1.3897
212.9133	-218.2830	1.3919
213.0134	-217.5990	1.3920
213.1133	-216.9500	1.3896
213.2142	-216.3000	1.3875
213.3134	-215.6690	1.3896
213.4146	-215.6390	1.3888
213.5149	-215.6390	1.3905
213.6149	-215.6390	1.3904
213.7149	-215.6390	1.3891
213.8149	-215.6390	1.3818
213.9149	-215.6390	1.3803
214.0149	-215.6390	1.3891
214.1143	-215.6400	1.3887
214.2150	-215.6400	1.3906
214.3146	-215.6400	1.3878
214.4144	-215.6400	1.3899
214.5150	-215.6400	1.3882
214.6146	-215.6400	1.3893
214.7150	-215.6400	1.3923
214.8156	-215.6400	1.3898
214.9169	-215.6400	1.3867
215.0177	-215.6400	1.3874
215.1181	-215.6400	1.3888
215.2175	-215.6400	1.3902
215.3181	-215.6400	1.3892
215.4178	-215.6400	1.3885
215.5179	-215.6400	1.3874
215.6175	-215.6400	1.3862
215.7180	-215.6400	1.3872
215.8176	-215.6400	1.3872
215.9187	-215.6400	1.3936
216.0190	-215.6400	1.3910
216.1191	-215.5080	1.3908
216.2395	-215.0970	1.3899
216.3403	-214.4120	1.3871
216.4408	-213.7280	1.3871
216.5409	-213.0780	1.3894
216.6409	-212.3940	1.3901
216.7411	-211.7450	1.4066
216.8410	-211.0610	1.3892
216.9404	-210.4110	1.3867
217.0412	-209.7280	1.3892
217.1409	-209.0790	1.3866
217.2407	-208.3950	1.3890
217.3406	-207.7460	1.3880
217.4404	-207.0620	1.3920
217.5407	-206.4130	1.3871
217.6412	-205.7290	1.3863
217.7407	-205.0800	1.3871
217.8406	-204.3960	1.3863
217.9408	-203.7470	1.3897
218.0408	-203.0630	1.3875
218.1406	-202.4140	1.3876
218.2412	-201.7300	1.3882
218.3407	-201.0810	1.3887
218.4414	-200.3970	1.3884
218.5431	-199.7130	1.3877
218.6428	-199.0640	1.3859
218.7426	-198.3800	1.3902
218.8426	-197.7310	1.3858
218.9427	-197.0470	1.3885
219.0427	-196.3980	1.3892
219.1426	-195.7140	1.3882
219.2437	-195.0650	1.3862
219.3450	-194.3810	1.3868
219.4447	-193.6970	1.3862
219.5450	-193.0480	1.3865
219.6467	-192.3650	1.3883
219.7455	-191.7150	1.3879
219.8456	-191.0320	1.3874
219.9454	-190.3820	1.3871
220.0459	-189.6990	1.3865
220.1460	-189.0490	1.3868
220.2461	-188.3660	1.3874
220.3460	-187.7160	1.3873
220.4457	-187.0330	1.3875
220.5459	-186.3830	1.3872
220.6456	-185.7000	1.3865
220.7454	-185.0500	1.3841
220.8454	-184.3670	1.3843
220.9460	-183.7170	1.3874
221.0458	-183.0340	1.3862
221.1454	-182.3840	1.3860
221.2470	-181.7000	1.3878
221.3475	-181.0170	1.3845
221.4478	-180.3680	1.3858
221.5474	-179.6840	1.3838
221.6476	-179.0340	1.3860
221.7481	-178.3510	1.3869
221.8479	-177.7020	1.3872
221.9474	-177.0180	1.3851
222.0482	-176.3690	1.3842
222.1482	-175.6850	1.3889
222.2478	-175.0360	1.3829
222.3484	-174.3520	1.3876
222.4489	-173.7030	1.3871
222.5491	-173.0190	1.3851
222.6493	-172.3690	1.3860
222.7493	-171.6860	1.3852
222.8484	-171.0370	1.3845
222.9489	-170.3530	1.3852
223.0486	-169.7030	1.3828
223.1490	-169.0180	1.3851
223.2501	-168.3680	1.3853
223.3494	-167.6850	1.3845
223.4501	-167.0010	1.3846
223.5510	-166.3510	1.3831
223.6514	-165.6930	1.3819
223.7521	-165.6390	1.3825
223.8514	-165.6390	1.3848
223.9514	-165.6390	1.3826
224.0527	-165.6390	1.3848
224.1527	-165.6390	1.3866
224.2527	-165.6390	1.3655
224.3527	-165.6400	1.3833
224.4528	-165.6400	1.3835
224.5536	-165.6400	1.3810
224.6544	-165.6400	1.3830
