27/11/2023 10:23:50 am
Time(s)	Displacement(mm) Force(N)
0.0000	50.0000	-0.3448
0.1460	50.0000	-0.3457
0.2471	50.0000	-0.3442
0.3479	50.0000	-0.3433
0.4480	50.0000	-0.3431
0.5482	50.0000	-0.3422
0.6490	50.0000	-0.3438
0.7490	50.0000	-0.3455
0.8490	50.0000	-0.3439
0.9491	50.0000	-0.3451
1.0496	50.0000	-0.3446
1.1495	50.0000	-0.3455
1.2491	50.0000	-0.3436
1.3497	50.0000	-0.3432
1.4499	50.0000	-0.3434
1.5501	50.0000	-0.3441
1.6509	50.0000	-0.3445
1.7511	50.0000	-0.3437
1.8516	50.0000	-0.3463
1.9511	50.0000	-0.3437
2.0516	50.0000	-0.3452
2.1512	50.0000	-0.3432
2.2530	50.0000	-0.3429
2.3527	50.0000	-0.3460
2.4528	50.0000	-0.3460
2.5541	50.0000	-0.3447
2.6544	50.0000	-0.3451
2.7545	50.0000	-0.3434
2.8541	50.0000	-0.3452
2.9544	50.0000	-0.3462
3.0543	50.0000	-0.3454
3.1553	50.0000	-0.3441
3.2569	50.0000	-0.3450
3.3567	50.0000	-0.3428
3.4567	50.0000	-0.3445
3.5566	50.0000	-0.3451
3.6564	50.0000	-0.3443
3.7561	50.0000	-0.3452
3.8561	50.0000	-0.3442
3.9562	50.0000	-0.3450
4.0580	50.0000	-0.3448
4.1573	50.0000	-0.3426
4.2572	50.0000	-0.3442
4.3571	50.0000	-0.3446
4.4590	50.0000	-0.3429
4.5586	50.0000	-0.3462
4.6593	50.0000	-0.3424
4.7606	50.0000	-0.3462
4.8607	50.0000	-0.3455
4.9616	50.0000	-0.3441
5.0620	50.0000	-0.3456
5.1623	50.0000	-0.3445
5.2627	50.0000	-0.3442
5.3626	50.0000	-0.3445
5.4624	50.0000	-0.3469
5.5639	50.0000	-0.3448
5.6639	50.0000	-0.3447
5.7641	50.0000	-0.3446
5.8645	50.0000	-0.3461
5.9642	50.0000	-0.3443
6.0644	50.0000	-0.3437
6.1643	50.0000	-0.3465
6.2645	50.0000	-0.3426
6.3645	50.0000	-0.3452
6.4643	50.0000	-0.3454
6.5643	50.0000	-0.3444
6.6652	50.0000	-0.3456
6.7664	50.0000	-0.3452
6.8669	50.0000	-0.3451
6.9666	50.0000	-0.3432
7.0671	50.0000	-0.3450
7.1676	50.0000	-0.3439
7.2676	50.0000	-0.3447
7.3689	50.0000	-0.3446
7.4684	50.0000	-0.3461
7.5690	50.0000	-0.3460
7.6686	50.0000	-0.3453
7.7689	50.0000	-0.3466
7.8685	50.0000	-0.3457
7.9692	50.0000	-0.3441
8.0698	50.0000	-0.3461
8.1695	50.0000	-0.3460
8.2702	50.0000	-0.3448
8.3712	50.0000	-0.3470
8.4715	50.0000	-0.3435
8.5713	50.0000	-0.3459
8.6720	50.0000	-0.3447
8.7730	50.0000	-0.3423
8.8740	50.0000	-0.3468
8.9747	50.0000	-0.3446
9.0751	50.0000	-0.3460
9.1743	50.0000	-0.3463
9.2744	50.0000	-0.3441
9.3745	50.0000	-0.3434
9.4745	50.0000	-0.3452
9.5745	50.0000	-0.3447
9.6745	50.0000	-0.3423
9.7744	50.0000	-0.3451
9.8745	50.0000	-0.3451
9.9754	50.0000	-0.3442
10.0760	50.0000	-0.3442
10.1767	50.0000	-0.3469
10.2768	50.0000	-0.3443
10.3768	50.0000	-0.3444
10.4761	50.0000	-0.3454
10.5771	50.0000	-0.3451
10.6775	50.0000	-0.3464
10.7771	50.0000	-0.3453
10.8777	50.0000	-0.3451
10.9777	50.0000	-0.3449
11.0777	50.0000	-0.3427
11.1779	50.0000	-0.3463
11.2772	50.0000	-0.3434
11.3778	50.0000	-0.3447
11.4772	50.0000	-0.3441
11.5778	50.0000	-0.3433
11.6783	50.0000	-0.3430
11.7787	50.0000	-0.3454
11.8781	50.0000	-0.3443
11.9788	50.0000	-0.3442
12.0784	50.0000	-0.3465
12.1789	50.0000	-0.3440
12.2792	50.0000	-0.3442
12.3811	50.0000	-0.3444
12.4813	50.0000	-0.3449
12.5821	50.0000	-0.3433
12.6821	50.0000	-0.3463
12.7815	50.0000	-0.3432
12.8821	50.0000	-0.3451
12.9827	50.0000	-0.3448
13.0822	50.0000	-0.3431
13.1832	50.0000	-0.3445
13.2843	50.0000	-0.3437
13.3845	50.0000	-0.3452
13.4845	50.0000	-0.3432
13.5847	50.0000	-0.3431
13.6845	50.0000	-0.3446
13.7860	50.0000	-0.3449
13.8858	50.0000	-0.3452
13.9855	50.0000	-0.3435
14.0861	50.0000	-0.3434
14.1862	50.0000	-0.3436
14.2868	50.0000	-0.3476
14.3863	50.0000	-0.3461
14.4862	50.0000	-0.3429
14.5868	50.0000	-0.3452
14.6869	50.0000	-0.3454
14.7864	50.0000	-0.3455
14.8868	50.0000	-0.3440
14.9872	50.0000	-0.3437
15.0878	50.0000	-0.3434
15.1878	50.0000	-0.3444
15.2880	50.0000	-0.3451
15.3881	50.0000	-0.3425
15.4890	50.0000	-0.3442
15.5887	50.0000	-0.3438
15.6887	50.0000	-0.3443
15.7890	50.0000	-0.3434
15.8893	50.0000	-0.3436
15.9897	50.0000	-0.3445
16.0901	50.0000	-0.3442
16.1902	50.0000	-0.3429
16.2911	50.0000	-0.3435
16.3912	50.0000	-0.3442
16.4912	50.0000	-0.3448
16.5917	50.0000	-0.3429
16.6922	50.0000	-0.3443
16.7918	50.0000	-0.3443
16.8918	50.0000	-0.3449
16.9922	50.0000	-0.3442
17.0940	50.0000	-0.3451
17.1940	50.0000	-0.3417
17.2941	50.0000	-0.3445
17.3934	50.0000	-0.3434
17.4934	50.0000	-0.3438
17.5951	50.0000	-0.3433
17.6943	50.0000	-0.3450
17.7946	50.0000	-0.3430
17.8953	50.0000	-0.3455
17.9952	50.0000	-0.3454
18.0960	50.0000	-0.3429
18.1957	50.0000	-0.3439
18.2957	50.0000	-0.3461
18.3967	50.0000	-0.3437
18.4965	50.0000	-0.3445
18.5964	50.0000	-0.3451
18.6971	50.0000	-0.3452
18.7969	50.0000	-0.3467
18.8963	50.0000	-0.3439
18.9970	50.0000	-0.3435
19.0968	50.0000	-0.3442
19.1965	50.0000	-0.3440
19.2962	50.0000	-0.3443
19.3970	50.0000	-0.3440
19.4967	50.0000	-0.3441
19.5971	50.0000	-0.3433
19.6965	50.0000	-0.3433
19.7963	50.0000	-0.3434
19.8967	50.0000	-0.3448
19.9968	50.0000	-0.3453
20.0962	50.0000	-0.3449
20.1968	50.0000	-0.3452
20.2965	50.0000	-0.3437
20.3967	50.0000	-0.3439
20.4983	50.0000	-0.3418
20.5992	50.0000	-0.3433
20.7002	50.0000	-0.3436
20.8007	50.0000	-0.3430
20.9006	50.0000	-0.3440
21.0007	50.0000	-0.3428
21.1011	50.0000	-0.3441
21.2015	50.0000	-0.3442
21.3021	50.0000	-0.3433
21.4022	50.0000	-0.3452
21.5027	50.0000	-0.3455
21.6041	50.0000	-0.3435
21.7036	50.0000	-0.3441
21.8032	50.0000	-0.3450
21.9033	50.0000	-0.3448
22.0033	50.0000	-0.3443
22.1038	50.0000	-0.3441
22.2047	50.0000	-0.3461
22.3046	50.0000	-0.3445
22.4045	50.0000	-0.3448
22.5046	50.0000	-0.3462
22.6063	50.0000	-0.3449
22.7072	50.0000	-0.3441
22.8063	50.0000	-0.3434
22.9064	50.0000	-0.3438
23.0068	50.0000	-0.3443
23.1065	50.0000	-0.3440
23.2082	50.0000	-0.3455
23.3080	50.0000	-0.3440
23.4077	50.0000	-0.3443
23.5074	50.0000	-0.3441
23.6092	50.0000	-0.3440
23.7089	50.0000	-0.3439
23.8087	50.0000	-0.3437
23.9088	50.0000	-0.3437
24.0088	50.0000	-0.3448
24.1096	50.0000	-0.3450
24.2095	50.0000	-0.3443
24.3098	50.0000	-0.3450
24.4099	50.0000	-0.3456
24.5095	50.0000	-0.3445
24.6111	50.0000	-0.3447
24.7103	50.0000	-0.3452
24.8104	50.0000	-0.3448
24.9106	50.0000	-0.3437
25.0108	50.0000	-0.3450
25.1107	50.0000	-0.3447
25.2109	50.0000	-0.3436
25.3110	50.0000	-0.3436
25.4104	50.0000	-0.3462
25.5110	50.0000	-0.3435
25.6105	50.0000	-0.3445
25.7115	50.0000	-0.3427
25.8120	50.0000	-0.3436
25.9123	50.0000	-0.3438
26.0123	50.0000	-0.3436
26.1142	50.0000	-0.3432
26.2140	50.0000	-0.3448
26.3139	50.0000	-0.3442
26.4139	50.0000	-0.3417
26.5153	50.0000	-0.3448
26.6158	50.0000	-0.3442
26.7155	50.0000	-0.3446
26.8165	50.0000	-0.3443
26.9174	50.0000	-0.3447
27.0184	50.0000	-0.3435
27.1190	50.0000	-0.3424
27.2193	50.0000	-0.3441
27.3199	50.0000	-0.3442
27.4202	50.0000	-0.3416
27.5202	50.0000	-0.3429
27.6198	50.0000	-0.3441
27.7202	50.0000	-0.3442
27.8197	50.0000	-0.3449
27.9201	50.0000	-0.3443
28.0197	50.0000	-0.3445
28.1204	50.0000	-0.3444
28.2208	50.0000	-0.3429
28.3207	50.0000	-0.3434
28.4203	50.0000	-0.3438
28.5213	50.0000	-0.3435
28.6218	50.0000	-0.3410
28.7219	50.0000	-0.3448
28.8222	50.0000	-0.3441
28.9219	50.0000	-0.3448
29.0219	50.0000	-0.3448
29.1222	50.0000	-0.3436
29.2217	50.0000	-0.3455
29.3222	50.0000	-0.3439
29.4217	50.0000	-0.3458
29.5227	50.0000	-0.3441
29.6244	50.0000	-0.3454
29.7243	50.0000	-0.3457
29.8244	50.0000	-0.3443
29.9251	50.0000	-0.3458
30.0245	50.0000	-0.3441
30.1246	50.0000	-0.3446
30.2247	50.0000	-0.3469
30.3245	50.0000	-0.3425
30.4247	50.0000	-0.3462
30.5246	50.0000	-0.3454
30.6245	50.0000	-0.3456
30.7245	50.0000	-0.3450
30.8244	50.0000	-0.3429
30.9245	50.0000	-0.3446
31.0244	50.0000	-0.5060
31.1245	50.0000	-0.5340
31.2245	50.0000	-0.5145
31.3245	50.0000	-0.4350
31.4245	50.0000	-0.7337
31.5246	50.0000	-0.7417
31.6247	50.0000	-0.6880
31.7246	50.0000	-0.9041
31.8250	50.0000	-1.1454
31.9252	50.0000	-1.3825
32.0263	50.0000	-1.1176
32.1260	50.0000	-0.8424
32.2254	50.0000	-1.1964
32.3260	50.0000	-1.2816
32.4257	50.0000	-1.3552
32.5257	50.0000	-1.7880
32.6254	50.0000	-1.7071
32.7259	50.0000	-1.5794
32.8255	50.0000	-1.5602
32.9264	50.0000	-1.3641
33.0264	50.0000	-1.1965
33.1273	50.0000	-0.8683
33.2272	50.0000	-0.6568
33.3276	50.0000	-0.6926
33.4278	50.0000	-0.7030
33.5278	50.0000	-0.9217
33.6276	50.0000	-0.6059
33.7274	50.0000	-0.8230
33.8281	50.0000	-1.3823
33.9279	50.0000	-1.4912
34.0284	50.0000	-1.5891
34.1285	50.0000	-1.3672
34.2290	50.0000	-1.5529
34.3294	50.0000	-1.5410
34.4304	50.0000	-1.3481
34.5314	50.0000	-1.5021
34.6321	50.0000	-1.4881
34.7323	50.0000	-1.6142
34.8323	50.0000	-1.7040
34.9322	50.0000	-1.6458
35.0331	50.0000	-1.6845
35.1325	50.0000	-1.8133
35.2327	50.0000	-1.8067
35.3333	50.0000	-1.8695
35.4347	50.0000	-1.6957
35.5348	50.0000	-1.3870
35.6347	50.0000	-1.2508
35.7347	50.0000	-1.3703
35.8347	50.0000	-1.2151
35.9347	50.0000	-0.7351
36.0358	50.0000	-0.5793
36.1354	50.0000	-0.4633
36.2366	50.0000	-0.5128
36.3373	50.0000	-1.1667
36.4371	50.0000	-1.7136
36.5371	50.0000	-1.8973
36.6372	50.0000	-2.1864
36.7369	50.0000	-2.1355
36.8376	50.0000	-1.8659
36.9373	50.0000	-1.6296
37.0375	50.0000	-1.6941
37.1376	50.0000	-1.9608
37.2383	50.0000	-1.9082
37.3384	50.0000	-1.9522
37.4392	50.0000	-1.7165
37.5392	50.0000	-1.6638
37.6394	50.0000	-1.6516
37.7405	50.0000	-0.9919
37.8404	50.0000	-0.6136
37.9423	50.0000	-0.1076
38.0423	50.0000	-0.3875
38.1423	50.0000	-0.4270
38.2423	50.0000	-0.5331
38.3424	50.0000	-0.8860
38.4444	50.0000	-0.9739
38.5447	50.0000	-1.1002
38.6447	50.0000	-0.9451
38.7446	50.0000	-0.9396
38.8451	50.0000	-1.0183
38.9447	50.0000	-0.8392
39.0448	50.0000	-0.8495
39.1455	50.0000	-0.8978
39.2456	50.0000	-0.7174
39.3457	50.0000	-0.5471
39.4456	50.0000	-0.4305
39.5455	50.0000	-0.1866
39.6463	50.0000	0.2116
39.7455	50.0000	0.0328
39.8465	50.0000	-0.3530
39.9469	50.0000	-0.2903
40.0473	50.0000	-0.5361
40.1466	50.0000	-0.1720
40.2471	50.0000	-0.3316
40.3466	50.0000	-0.2351
40.4467	50.0000	-0.0462
40.5464	50.0000	-0.0006
40.6468	50.0000	-0.1065
40.7476	50.0000	0.0459
40.8479	50.0000	0.3656
40.9482	50.0000	0.7424
41.0474	50.0000	0.7518
41.1476	50.0000	0.8358
41.2479	50.0000	0.9558
41.3484	50.0000	0.7637
41.4495	50.0000	0.7376
41.5495	50.0000	0.5935
41.6500	50.0000	0.4925
41.7500	50.0000	0.6495
41.8500	50.0000	0.7561
41.9499	50.0000	0.7502
42.0507	50.0000	0.7745
42.1509	50.0000	0.7525
42.2522	50.0000	0.7375
42.3523	50.0000	0.7467
42.4523	50.0000	0.7389
42.5523	50.0000	0.7797
42.6523	50.0000	0.8933
42.7524	50.0000	0.8961
42.8544	50.0000	0.8523
42.9541	50.0000	0.6171
43.0540	50.0000	0.6734
43.1540	50.0000	0.7485
43.2538	50.0000	0.7388
43.3537	50.0000	0.7413
43.4543	50.0000	0.7576
43.5542	50.0000	0.7297
43.6534	50.0000	0.7676
43.7535	50.0000	0.6287
43.8537	50.0000	0.7536
43.9544	50.0000	0.7685
44.0545	50.0000	0.7699
44.1547	50.0000	0.7527
44.2545	50.0000	0.7985
44.3546	50.0000	0.9445
44.4564	50.0000	1.0253
44.5574	50.0000	0.9754
44.6568	50.0000	0.9497
44.7569	50.0000	0.7179
44.8571	50.0000	0.7430
44.9575	50.0000	0.7220
45.0583	50.0000	0.7351
45.1584	50.0000	0.7666
45.2585	50.0000	0.8003
45.3597	50.0000	0.7538
45.4595	50.0000	0.8258
45.5595	50.0000	0.7455
45.6613	50.0000	0.7524
45.7604	50.0000	0.7529
45.8610	50.0000	0.7074
45.9615	50.0000	0.4848
46.0624	50.0000	0.8392
46.1615	50.0000	0.7060
46.2619	50.0000	0.4553
46.3624	50.0000	0.4648
46.4628	50.0000	0.4962
46.5645	50.0000	0.5554
46.6648	50.0000	0.7085
46.7648	50.0000	0.7048
46.8646	50.0000	0.6379
46.9647	50.0000	0.7001
47.0648	50.0000	0.8865
47.1648	50.0000	0.4368
47.2648	50.0000	0.8099
47.3646	50.0000	0.5655
47.4661	50.0000	0.6353
47.5657	50.0000	0.7172
47.6658	50.0000	0.7321
47.7659	50.0000	0.5492
47.8665	50.0000	0.9812
47.9664	50.0000	1.4788
48.0685	50.0000	1.5735
48.1692	50.0000	1.7246
48.2690	50.0000	1.6762
48.3693	50.0000	1.2640
48.4694	50.0000	0.8575
48.5690	50.0000	0.7113
48.6694	50.0000	0.6008
48.7689	50.0000	1.3408
48.8690	50.0000	1.3948
48.9689	50.0000	1.2922
49.0696	50.0000	1.6593
49.1700	50.0000	0.8640
49.2700	50.0000	0.6880
49.3700	50.0000	0.7570
49.4704	50.0000	0.7323
49.5702	50.0000	0.6959
49.6700	50.0000	0.7115
49.7703	50.0000	0.7681
49.8704	50.0000	0.7682
49.9703	50.0000	0.6464
50.0703	50.0000	0.4011
50.1702	50.0000	0.5999
50.2694	50.0000	0.7800
50.3704	50.0000	0.7469
50.4696	50.0000	0.6874
50.5700	50.0000	0.6685
50.6701	50.0000	0.7615
50.7702	50.0000	0.7451
50.8702	50.0000	0.9159
50.9714	50.0000	0.6776
51.0724	50.0000	0.4767
51.1722	50.0000	0.7939
51.2718	50.0000	0.9042
51.3718	50.0000	0.6089
51.4724	50.0000	0.7044
51.5719	50.0000	0.7625
51.6720	50.0000	0.8217
51.7723	50.0000	0.7772
51.8724	50.0000	1.0416
51.9723	50.0000	0.9207
52.0724	50.0000	1.0467
52.1724	50.0000	0.8410
52.2724	50.0000	0.9427
52.3718	50.0000	1.0104
52.4724	50.0000	0.9391
52.5724	50.0000	0.7603
52.6724	50.0000	0.8783
52.7724	50.0000	0.8617
52.8725	50.0000	0.8282
52.9744	50.0000	0.8038
53.0753	50.0000	0.7317
53.1748	50.0000	0.7251
53.2749	50.0000	0.7230
53.3750	50.0000	0.7249
53.4758	50.0000	0.7241
53.5765	50.0000	0.7239
53.6778	50.0000	0.7243
53.7779	50.0000	0.7241
53.8783	50.0000	0.7228
53.9777	50.0000	0.7242
54.0783	50.0000	0.7232
54.1780	50.0000	0.7248
54.2782	50.0000	0.7220
54.3785	50.0000	0.7239
54.4790	50.0000	0.7242
54.5793	50.0000	0.7238
54.6793	50.0000	0.7233
54.7794	50.0000	0.7241
54.8791	50.0000	0.7229
54.9796	50.0000	0.7242
55.0796	50.0000	0.7247
55.1798	50.0000	0.7235
55.2800	50.0000	0.7209
55.3801	50.0000	0.7221
55.4797	50.0000	0.7247
55.5798	50.0000	0.7235
55.6796	50.0000	0.7248
55.7797	50.0000	0.7234
55.8806	50.0000	0.7234
55.9815	50.0000	0.7231
56.0813	50.0000	0.7215
56.1814	50.0000	0.7213
56.2824	50.0000	0.7248
56.3822	50.0000	0.7231
56.4824	50.0000	0.7217
56.5821	50.0000	0.7236
56.6825	50.0000	0.7236
56.7826	50.0000	0.7221
56.8836	50.0000	0.7247
56.9846	50.0000	0.7205
57.0849	50.0000	0.7242
57.1849	50.0000	0.7228
57.2848	50.0000	0.7231
57.3849	50.0000	0.7232
57.4847	50.0000	0.7225
57.5848	50.0000	0.7212
57.6846	50.0000	0.7215
57.7846	50.0000	0.7238
57.8847	50.0000	0.7236
57.9847	50.0000	0.7239
58.0856	50.0000	0.7235
58.1857	50.0000	0.7243
58.2863	50.0000	0.7237
58.3862	50.0000	0.7224
58.4866	50.0000	0.7227
58.5872	50.0000	0.7225
58.6876	50.0000	0.7227
58.7885	50.0000	0.7234
58.8888	50.0000	0.7234
58.9897	50.0000	0.7223
59.0909	50.0000	0.7239
59.1916	50.0000	0.7229
59.2922	50.0000	0.7231
59.3924	50.0000	0.7250
59.4921	50.0000	0.7246
59.5917	50.0000	0.7253
59.6923	50.0000	0.7228
59.7925	50.0000	0.7220
59.8925	50.0000	0.7223
59.9925	50.0000	0.7239
60.0926	50.0000	0.7218
60.1946	50.0000	0.7234
60.2949	50.0000	0.7241
60.3948	50.0000	0.7218
60.4949	50.0000	0.7228
60.5947	50.0000	0.7239
60.6949	50.0000	0.7239
60.7965	50.0000	0.7219
60.8958	50.0000	0.7231
60.9966	50.0000	0.7239
61.0972	50.0000	0.7220
61.1976	50.0000	0.7239
61.2978	50.0000	0.7239
61.3977	50.0000	0.7234
61.4985	50.0000	0.7226
61.5993	50.0000	0.7249
61.6991	50.0000	0.7222
61.7987	50.0000	0.7223
61.8990	50.0000	0.7222
61.9996	50.0000	0.7225
62.1002	50.0000	0.7223
62.2002	50.0000	0.7227
62.3004	50.0000	0.7227
62.4005	50.0000	0.7212
62.5001	50.0000	0.7219
62.6005	50.0000	0.7224
62.7003	50.0000	0.7217
62.8006	50.0000	0.7233
62.9014	50.0000	0.7229
63.0013	50.0000	0.7240
63.1012	50.0000	0.7221
63.2015	50.0000	0.7218
63.3015	50.0000	0.7223
63.4010	50.0000	0.7205
63.5013	50.0000	0.7225
63.6008	50.0000	0.7239
63.7008	50.0000	0.7218
63.8007	50.0000	0.7245
63.9006	50.0000	0.7226
64.0016	50.0000	0.7235
64.1023	50.0000	0.7209
64.2020	50.0000	0.7245
64.3025	50.0000	0.7247
64.4025	50.0000	0.7213
64.5025	50.0000	0.7224
64.6026	50.0000	0.7229
64.7025	50.0000	0.7228
64.8022	50.0000	0.7224
64.9025	50.0000	0.7231
65.0026	50.0000	0.7236
65.1025	50.0000	0.7225
65.2025	50.0000	0.7224
65.3022	50.0000	0.7220
65.4025	50.0000	0.7216
65.5025	50.0000	0.7237
65.6025	50.0000	0.7215
65.7024	50.0000	0.7221
65.8026	50.0000	0.7204
65.9046	50.0000	0.7209
66.0044	50.0000	0.7227
66.1041	50.0000	0.7214
66.2037	50.0000	0.7210
66.3051	50.0000	0.7228
66.4047	50.0000	0.7206
66.5050	50.0000	0.7228
66.6048	50.0000	0.7232
66.7048	50.0000	0.7206
66.8063	50.0000	0.7225
66.9069	50.0000	0.7235
67.0074	50.0000	0.7213
67.1070	50.0000	0.7234
67.2072	50.0000	0.7214
67.3070	50.0000	0.7222
67.4072	50.0000	0.7230
67.5070	50.0000	0.7212
67.6069	50.0000	0.7231
67.7074	50.0000	0.7228
67.8071	50.0000	0.7227
67.9078	50.0000	0.7212
68.0078	50.0000	0.7220
68.1091	50.0000	0.7221
68.2093	50.0000	0.7213
68.3095	50.0000	0.7228
68.4098	50.0000	0.7226
68.5101	50.0000	0.7214
68.6107	50.0000	0.7195
68.7114	50.0000	0.7216
68.8107	50.0000	0.7221
68.9110	50.0000	0.7228
69.0111	50.0000	0.7223
69.1109	50.0000	0.7222
69.2111	50.0000	0.7226
69.3115	50.0000	0.7225
69.4116	50.0000	0.7222
69.5110	50.0000	0.7208
69.6109	50.0000	0.7222
69.7113	50.0000	0.7201
69.8107	50.0000	0.7204
69.9111	50.0000	0.7220
70.0118	50.0000	0.7206
70.1126	50.0000	0.7231
70.2126	50.0000	0.7205
70.3126	50.0000	0.7203
70.4125	50.0000	0.7218
70.5126	50.0000	0.7206
70.6145	50.0000	0.7226
70.7143	50.0000	0.7205
70.8140	50.0000	0.7217
70.9154	50.0000	0.7229
71.0147	50.0000	0.7221
71.1147	50.0000	0.7223
71.2148	50.0000	0.7220
71.3158	50.0000	0.7234
71.4160	50.0000	0.7231
71.5163	50.0000	0.7225
71.6173	50.0000	0.7232
71.7176	50.0000	0.7203
71.8172	50.0000	0.7215
71.9172	50.0000	0.7226
72.0176	50.0000	0.7215
72.1179	50.0000	0.7208
72.2184	50.0000	0.7219
72.3193	50.0000	0.7219
72.4194	50.0000	0.7232
72.5194	50.0000	0.7223
72.6192	50.0000	0.7225
72.7193	50.0000	0.7238
72.8196	50.0000	0.7223
72.9198	50.0000	0.7223
73.0204	50.0000	0.7211
73.1206	50.0000	0.7203
73.2206	50.0000	0.7208
73.3205	50.0000	0.7199
73.4204	50.0000	0.7220
73.5205	50.0000	0.7242
73.6205	50.0000	0.7234
73.7205	50.0000	0.7215
73.8202	50.0000	0.7226
73.9204	50.0000	0.7205
74.0215	50.0000	0.7218
74.1216	50.0000	0.7204
74.2215	50.0000	0.7208
74.3215	50.0000	0.7216
74.4211	50.0000	0.7219
74.5219	50.0000	0.7218
74.6221	50.0000	0.7210
74.7222	50.0000	0.7206
74.8223	50.0000	0.7211
74.9220	50.0000	0.7222
75.0226	50.0000	0.7202
75.1222	50.0000	0.7229
75.2226	50.0000	0.7198
75.3219	50.0000	0.7202
75.4220	50.0000	0.7227
75.5231	50.0000	0.7201
75.6247	50.0000	0.7234
75.7247	50.0000	0.7227
75.8250	50.0000	0.7221
75.9250	50.0000	0.7202
76.0249	50.0000	0.7226
76.1259	50.0000	0.7216
76.2276	50.0000	0.7207
76.3269	50.0000	0.7227
76.4269	50.0000	0.7209
76.5273	50.0000	0.7219
76.6271	50.0000	0.7218
76.7267	50.0000	0.7224
76.8268	50.0000	0.7205
76.9276	50.0000	0.7233
77.0278	50.0000	0.7204
77.1287	50.0000	0.7199
77.2298	50.0000	0.7225
77.3300	50.0000	0.7225
77.4297	50.0000	0.7226
77.5305	50.0000	0.7208
77.6302	50.0000	0.7221
77.7302	50.0000	0.7201
77.8306	50.0000	0.7230
77.9300	50.0000	0.7204
78.0303	50.0000	0.7236
78.1306	50.0000	0.7202
78.2298	50.0000	0.7205
78.3307	50.0000	0.7219
78.4317	50.0000	0.7202
78.5313	50.0000	0.7211
78.6312	50.0000	0.7240
78.7314	50.0000	0.7234
78.8312	50.0000	0.7214
78.9310	50.0000	0.7230
79.0310	50.0000	0.7227
79.1308	50.0000	0.7210
79.2319	50.0000	0.7201
79.3323	50.0000	0.7234
79.4323	50.0000	0.7225
79.5325	50.0000	0.7221
79.6326	50.0000	0.7206
79.7325	50.0000	0.7234
79.8327	50.0000	0.7199
79.9326	50.0000	0.7201
80.0320	50.0000	0.7216
80.1327	50.0000	0.7201
80.2318	50.0000	0.7229
80.3326	50.0000	0.7189
80.4326	50.0000	0.7219
80.5322	50.0000	0.7222
80.6327	50.0000	0.7215
80.7345	50.0000	0.7210
80.8345	50.0000	0.7227
80.9343	50.0000	0.7221
81.0341	50.0000	0.7190
81.1342	50.0000	0.7219
81.2342	50.0000	0.7208
81.3346	50.0000	0.7202
81.4342	50.0000	0.7200
81.5347	50.0000	0.7204
81.6342	50.0000	0.7205
81.7338	50.0000	0.7222
81.8346	50.0000	0.7193
81.9341	50.0000	0.7201
82.0355	50.0000	0.7216
82.1358	50.0000	0.7197
82.2377	50.0000	0.7195
82.3374	50.0000	0.7211
82.4371	50.0000	0.7231
82.5368	50.0000	0.7204
82.6370	50.0000	0.7214
82.7386	50.0000	0.7228
82.8383	50.0000	0.7203
82.9380	50.0000	0.7211
83.0388	50.0000	0.7216
83.1398	50.0000	0.7201
83.2398	50.0000	0.7244
83.3398	50.0000	0.7230
83.4407	50.0000	0.7204
83.5407	50.0000	0.7199
83.6408	50.0000	0.7232
83.7417	50.0000	0.7218
83.8415	50.0000	0.7210
83.9427	50.0000	0.7229
84.0426	50.0000	0.7224
84.1423	50.0000	0.7204
84.2420	50.0000	0.7204
84.3437	50.0000	0.7219
84.4435	50.0000	0.7228
84.5432	50.0000	0.7232
84.6430	50.0000	0.7258
84.7437	50.0000	0.7212
84.8447	50.0000	0.7234
84.9440	50.0000	0.7199
85.0439	50.0000	0.7216
85.1446	50.0000	0.7214
85.2444	50.0000	0.7232
85.3443	50.0000	0.7203
85.4440	50.0000	0.7211
85.5451	50.0000	0.7222
85.6450	50.0000	0.7252
85.7461	50.0000	0.7233
85.8464	50.0000	0.7229
85.9463	50.0000	0.7223
86.0463	50.0000	0.7239
86.1466	50.0000	0.7226
86.2459	50.0000	0.7204
86.3475	50.0000	0.7210
86.4486	50.0000	0.7236
86.5479	50.0000	0.7236
86.6482	50.0000	0.7247
86.7479	50.0000	0.7225
86.8487	50.0000	0.7237
86.9486	50.0000	0.7232
87.0485	50.0000	0.7231
87.1480	50.0000	0.7242
87.2482	50.0000	0.7225
87.3492	50.0000	0.7199
87.4490	50.0000	0.7202
87.5495	50.0000	0.7216
87.6491	50.0000	0.7229
87.7496	50.0000	0.7213
87.8495	50.0000	0.7217
87.9493	50.0000	0.7225
88.0493	50.0000	0.7225
88.1493	50.0000	0.7212
88.2490	50.0000	0.7207
88.3491	50.0000	0.7216
88.4500	50.0000	0.7221
88.5500	50.0000	0.7231
88.6508	50.0000	0.7226
88.7512	50.0000	0.7242
88.8511	50.0000	0.7219
88.9512	50.0000	0.7218
89.0511	50.0000	0.7237
89.1516	50.0000	0.7224
89.2513	50.0000	0.7208
89.3513	50.0000	0.7232
89.4511	50.0000	0.7211
89.5508	50.0000	0.7236
89.6517	50.0000	0.7231
89.7513	50.0000	0.7243
89.8514	50.0000	0.7217
89.9512	50.0000	0.7223
90.0515	50.0000	0.7218
90.1512	50.0000	0.7237
90.2518	50.0000	0.7202
90.3527	50.0000	0.7214
90.4518	50.0000	0.7215
90.5527	50.0000	0.7240
90.6527	50.0000	0.7209
90.7522	50.0000	0.7205
90.8527	50.0000	0.7228
90.9527	50.0000	0.7216
91.0527	50.0000	0.7216
91.1522	50.0000	0.7221
91.2522	50.0000	0.7214
91.3528	50.0000	0.7217
91.4528	50.0000	0.7222
91.5527	50.0000	0.7236
91.6526	50.0000	0.7228
91.7536	50.0000	0.7241
91.8536	50.0000	0.7229
91.9534	50.0000	0.7223
92.0546	50.0000	0.7224
92.1546	50.0000	0.7270
92.2541	50.0000	0.7194
92.3539	50.0000	0.7208
92.4539	50.0000	0.7254
92.5543	50.0000	0.7222
92.6541	50.0000	0.7216
92.7543	50.0000	0.7246
92.8542	50.0000	0.7246
92.9544	50.0000	0.7212
93.0539	50.0000	0.7238
93.1549	50.0000	0.7236
93.2549	50.0000	0.7233
93.3567	50.0000	0.7217
93.4561	50.0000	0.7240
93.5559	50.0000	0.7195
93.6560	50.0000	0.7253
93.7567	50.0000	0.7219
93.8568	50.0000	0.7212
93.9578	50.0000	0.7217
94.0570	50.0000	0.7233
94.1570	50.0000	0.7230
94.2574	50.0000	0.7234
94.3573	50.0000	0.7225
94.4569	50.0000	0.7238
94.5579	50.0000	0.7210
94.6581	50.0000	0.7226
94.7584	50.0000	0.7241
94.8587	50.0000	0.7215
94.9590	50.0000	0.7227
95.0600	50.0000	0.7235
95.1604	50.0000	0.7247
95.2605	50.0000	0.7241
95.3601	50.0000	0.7224
95.4603	50.0000	0.7235
95.5604	50.0000	0.7231
95.6605	50.0000	0.7227
95.7605	50.0000	0.7252
95.8607	50.0000	0.7239
95.9608	50.0000	0.7218
96.0608	50.0000	0.7231
96.1609	50.0000	0.7252
96.2610	50.0000	0.7228
96.3609	50.0000	0.7239
96.4611	50.0000	0.7239
96.5609	50.0000	0.7243
96.6618	50.0000	0.7200
96.7619	50.0000	0.7242
96.8628	50.0000	0.7234
96.9628	50.0000	0.7237
97.0628	50.0000	0.7246
97.1628	50.0000	0.7237
97.2621	50.0000	0.7228
97.3622	50.0000	0.7258
97.4628	50.0000	0.7272
97.5628	50.0000	0.7226
97.6627	50.0000	0.7246
97.7628	50.0000	0.7213
97.8628	50.0000	0.7222
97.9628	50.0000	0.7225
98.0628	50.0000	0.7233
98.1628	50.0000	0.7231
98.2628	50.0000	0.7228
98.3628	50.0000	0.7242
98.4622	50.0000	0.7241
98.5628	50.0000	0.7237
98.6625	50.0000	0.7220
98.7623	50.0000	0.7240
98.8620	50.0000	0.7235
98.9619	50.0000	0.7236
99.0626	50.0000	0.7218
99.1628	50.0000	0.7245
99.2628	50.0000	0.7236
99.3628	50.0000	0.7242
99.4624	50.0000	0.7235
99.5628	50.0000	0.7240
99.6623	50.0000	0.7253
99.7625	50.0000	0.7218
99.8620	50.0000	0.7248
99.9631	50.0000	0.7216
100.0630	50.0000	0.7225
100.1630	50.0000	0.7237
100.2629	50.0000	0.7257
100.3632	50.0000	0.7236
100.4632	50.0000	0.7245
100.5635	50.0000	0.7247
100.6640	50.0000	0.7245
100.7649	50.0000	0.7227
100.8652	50.0000	0.7278
100.9651	50.0000	0.7252
101.0653	50.0000	0.7255
101.1651	50.0000	0.7217
101.2652	50.0000	0.7237
101.3651	50.0000	0.7259
101.4653	50.0000	0.7203
101.5652	50.0000	0.7239
101.6652	50.0000	0.7278
101.7653	50.0000	0.7227
101.8657	50.0000	0.7253
101.9652	50.0000	0.7259
102.0652	50.0000	0.7245
102.1660	50.0000	0.7263
102.2660	50.0000	0.7245
102.3668	50.0000	0.7248
102.4660	50.0000	0.7257
102.5661	50.0000	0.7235
102.6660	50.0000	0.7240
102.7669	50.0000	0.7225
102.8669	50.0000	0.7217
102.9676	50.0000	0.7223
103.0675	50.0000	0.7268
103.1671	50.0000	0.7200
103.2675	50.0000	0.7228
103.3675	50.0000	0.7267
103.4671	50.0000	0.7241
103.5673	50.0000	0.7232
103.6675	50.0000	0.7209
103.7675	50.0000	0.7240
103.8675	50.0000	0.7242
103.9675	50.0000	0.7202
104.0673	50.0000	0.7275
104.1685	50.0000	0.7272
104.2685	50.0000	0.7236
104.3681	50.0000	0.7251
104.4685	50.0000	0.7260
104.5692	50.0000	0.7234
104.6694	50.0000	0.7238
104.7699	50.0000	0.7224
104.8700	50.0000	0.7244
104.9705	50.0000	0.7228
105.0708	50.0000	0.7249
105.1708	50.0000	0.7257
105.2706	50.0000	0.7190
105.3701	50.0000	0.7248
105.4710	50.0000	0.7251
105.5710	50.0000	0.7221
105.6710	50.0000	0.7267
105.7717	50.0000	0.7245
105.8713	50.0000	0.7264
105.9713	50.0000	0.7227
106.0713	50.0000	0.7238
106.1714	50.0000	0.7204
106.2715	50.0000	0.7244
106.3715	50.0000	0.7256
106.4714	50.0000	0.7273
106.5711	50.0000	0.7285
106.6715	50.0000	0.7260
106.7719	50.0000	0.7259
106.8720	50.0000	0.7248
106.9729	50.0000	0.7261
107.0724	50.0000	0.7253
107.1728	50.0000	0.7260
107.2721	50.0000	0.7245
107.3729	50.0000	0.7225
107.4730	50.0000	0.7240
107.5750	50.0000	0.7277
107.6750	50.0000	0.7250
107.7754	50.0000	0.7220
107.8765	50.0000	0.7233
107.9760	50.0000	0.7211
108.0765	50.0000	0.7219
108.1761	50.0000	0.7235
108.2772	50.0000	0.7262
108.3780	50.0000	0.7275
108.4781	50.0000	0.7232
108.5781	50.0000	0.7217
108.6792	50.0000	0.7233
108.7798	50.0000	0.7261
108.8799	50.0000	0.7223
108.9802	50.0000	0.7238
109.0806	50.0000	0.7212
109.1805	50.0000	0.7248
109.2818	50.0000	0.7240
109.3810	50.0000	0.7256
109.4815	50.0000	0.7228
109.5820	50.0000	0.7222
109.6829	50.0000	0.7206
109.7829	50.0000	0.7218
109.8829	50.0000	0.7224
109.9829	50.0000	0.7207
110.0824	50.0000	0.7223
110.1829	50.0000	0.7269
110.2824	50.0000	0.7277
110.3825	50.0000	0.7271
110.4829	50.0000	0.7277
110.5829	50.0000	0.7236
110.6829	50.0000	0.7277
110.7828	50.0000	0.7270
110.8829	50.0000	0.7192
110.9829	50.0000	0.7252
111.0829	50.0000	0.7234
111.1829	50.0000	0.7231
111.2829	50.0000	0.7250
111.3829	50.0000	0.7231
111.4829	50.0000	0.7193
111.5830	50.0000	0.7242
111.6829	50.0000	0.7235
111.7825	50.0000	0.7246
111.8829	50.0000	0.7265
111.9829	50.0000	0.7245
112.0827	50.0000	0.7228
112.1825	50.0000	0.7239
112.2829	50.0000	0.7231
112.3829	50.0000	0.7250
112.4829	50.0000	0.7284
112.5830	50.0000	0.7237
112.6829	50.0000	0.7258
112.7828	50.0000	0.7225
112.8824	50.0000	0.7230
112.9826	50.0000	0.7211
113.0830	50.0000	0.7257
113.1830	50.0000	0.7264
113.2831	50.0000	0.7253
113.3850	50.0000	0.7218
113.4851	50.0000	0.7229
113.5850	50.0000	0.7861
113.6854	50.0000	0.9279
113.7853	50.0000	0.7421
113.8859	50.0000	0.9511
113.9854	50.0000	0.7392
114.0853	50.0000	0.7218
114.1853	50.0000	0.7494
114.2853	50.0000	0.9047
114.3863	50.0000	1.1528
114.4871	50.0000	1.4843
114.5880	50.0000	1.7777
114.6875	50.0000	1.6422
114.7874	50.0000	1.7093
114.8874	50.0000	1.8165
114.9872	50.0000	1.7267
115.0883	50.0000	1.8249
115.1885	50.0000	2.2666
115.2882	50.0000	2.2108
115.3884	50.0000	2.1833
115.4885	50.0000	2.1589
115.5891	50.0000	2.1481
115.6893	50.0000	2.1532
115.7901	50.0000	2.1645
115.8907	50.0000	2.1732
115.9911	50.0000	2.1687
116.0920	50.0000	2.1591
116.1911	50.0000	2.1676
116.2914	50.0000	2.1679
116.3916	50.0000	2.1642
116.4919	50.0000	2.1657
116.5919	50.0000	2.1622
116.6911	50.0000	2.1641
116.7910	50.0000	2.1630
116.8923	50.0000	2.1675
116.9930	50.0000	2.1641
117.0930	50.0000	2.1627
117.1930	50.0000	2.1689
117.2926	50.0000	2.1627
117.3928	50.0000	2.1621
117.4929	50.0000	2.1650
117.5930	50.0000	2.1661
117.6929	50.0000	2.1584
117.7924	50.0000	2.1637
117.8930	50.0000	2.1659
117.9924	50.0000	2.1677
118.0930	50.0000	2.1636
118.1923	50.0000	2.1704
118.2928	50.0000	2.1627
118.3930	50.0000	2.1623
118.4929	50.0000	2.1680
118.5930	50.0000	2.1645
118.6930	50.0000	2.1637
118.7930	50.0000	2.1670
118.8930	50.0000	2.1638
118.9930	50.0000	2.1644
119.0930	50.0000	2.1597
119.1930	50.0000	2.1625
119.2930	50.0000	2.1690
119.3930	50.0000	2.1607
119.4930	50.0000	2.1592
119.5922	50.0000	2.1612
119.6929	50.0000	2.1639
119.7930	50.0000	2.1643
119.8928	50.0000	2.1624
119.9928	50.0000	2.1634
120.0939	50.0000	2.1614
120.1941	50.0000	2.1655
120.2949	50.0000	2.1627
120.3947	50.0000	2.1620
120.4946	50.0000	2.1626
120.5941	50.0000	2.1609
120.6950	50.0000	2.1668
120.7942	50.0000	2.1604
120.8947	50.0000	2.1674
120.9945	50.0000	2.1730
121.0954	50.0000	2.1638
121.1954	50.0000	2.1607
121.2967	50.0000	2.1638
121.3963	50.0000	2.1599
121.4973	50.0000	2.1578
121.5978	50.0000	2.1663
121.6981	50.0000	2.1623
121.7979	50.0000	2.1661
121.8981	50.0000	2.1645
121.9986	50.0000	2.1625
122.0990	50.0000	2.1673
122.1991	50.0000	2.1612
122.2992	50.0000	2.1642
122.3992	50.0000	2.1649
122.5000	50.0000	2.1638
122.6001	50.0000	2.1630
122.7018	50.0000	2.1652
122.8012	50.0000	2.1649
122.9023	50.0000	2.1653
123.0041	50.0000	2.1630
123.1038	50.0000	2.1701
123.2051	50.0000	2.1618
123.3054	50.0000	2.1626
123.4053	50.0000	2.1637
123.5055	50.0000	2.1603
123.6054	50.0000	2.1663
123.7054	50.0000	2.1696
123.8052	50.0000	2.1655
123.9052	50.0000	2.1615
124.0055	50.0000	2.1617
124.1054	50.0000	2.1643
124.2055	50.0000	2.1657
124.3053	50.0000	2.1643
124.4055	50.0000	2.1670
124.5055	50.0000	2.1690
124.6055	50.0000	2.1627
124.7055	50.0000	2.1664
124.8053	50.0000	2.1645
124.9054	50.0000	2.1683
125.0053	50.0000	2.1625
125.1055	50.0000	2.1658
125.2067	50.0000	2.1566
125.3064	50.0000	2.1675
125.4074	50.0000	2.1626
125.5071	50.0000	2.1661
125.6084	50.0000	2.1631
125.7084	50.0000	2.1607
125.8087	50.0000	2.1631
125.9087	50.0000	2.1644
126.0091	50.0000	2.1678
126.1100	50.0000	2.1617
126.2108	50.0000	2.1659
126.3107	50.0000	2.1689
126.4106	50.0000	2.1592
126.5107	50.0000	2.1629
126.6107	50.0000	2.1620
126.7107	50.0000	2.1663
126.8108	50.0000	2.1621
126.9107	50.0000	2.1607
127.0107	50.0000	2.1617
127.1106	50.0000	2.1548
127.2107	50.0000	2.1661
127.3107	50.0000	2.1649
127.4107	50.0000	2.1656
127.5107	50.0000	2.1638
127.6112	50.0000	2.1653
127.7123	50.0000	2.1667
127.8131	50.0000	2.1603
127.9131	50.0000	2.1646
128.0131	50.0000	2.1583
128.1127	50.0000	2.1615
128.2131	50.0000	2.1683
128.3130	50.0000	2.1623
128.4129	50.0000	2.1629
128.5128	50.0000	2.1687
128.6131	50.0000	2.1689
128.7131	50.0000	2.1719
128.8131	50.0000	2.1702
128.9131	50.0000	2.1638
129.0131	50.0000	2.1676
129.1127	50.0000	2.1630
129.2131	50.0000	2.1607
129.3131	50.0000	2.1584
129.4131	50.0000	2.1545
129.5130	50.0000	2.1664
129.6131	50.0000	2.1639
129.7130	50.0000	2.1650
129.8130	50.0000	2.1621
129.9131	50.0000	2.1634
130.0131	50.0000	2.1603
130.1131	50.0000	2.1622
130.2131	50.0000	2.1634
130.3125	50.0000	2.1638
130.4127	50.0000	2.1608
130.5128	50.0000	2.1656
130.6130	50.0000	2.1679
130.7125	50.0000	2.1620
130.8127	50.0000	2.1669
130.9131	50.0000	2.1643
131.0131	50.0000	2.1663
131.1128	50.0000	2.1551
131.2131	50.0000	2.1568
131.3131	50.0000	2.1621
131.4130	50.0000	2.1627
131.5130	50.0000	2.1703
131.6130	50.0000	2.1660
131.7129	50.0000	2.1668
131.8131	50.0000	2.1659
131.9131	50.0000	2.1688
132.0131	50.0000	2.1600
132.1131	50.0000	2.1666
132.2127	50.0000	2.1607
132.3129	50.0000	2.1626
132.4126	50.0000	2.1586
132.5131	50.0000	2.1599
132.6131	50.0000	2.1601
132.7128	50.0000	2.1646
132.8132	50.0000	2.1670
132.9152	50.0000	2.1629
133.0153	50.0000	2.1707
133.1155	50.0000	2.1576
133.2154	50.0000	2.1683
133.3154	50.0000	2.1678
133.4155	50.0000	2.1565
133.5155	50.0000	2.1701
133.6155	50.0000	2.1637
133.7153	50.0000	2.1699
133.8156	50.0000	2.1636
133.9154	50.0000	2.1581
134.0155	50.0000	2.1719
134.1152	50.0000	2.1593
134.2156	50.0000	2.1726
134.3156	50.0000	2.1632
134.4170	50.0000	2.1700
134.5163	50.0000	2.1622
134.6172	50.0000	2.1662
134.7174	50.0000	2.1612
134.8184	50.0000	2.1666
134.9193	50.0000	2.1683
135.0193	50.0000	2.1592
135.1197	50.0000	2.1671
135.2201	50.0000	2.1540
135.3204	50.0000	2.1591
135.4212	50.0000	2.1708
135.5208	50.0000	2.1574
135.6206	50.0000	2.1666
135.7211	50.0000	2.1569
135.8208	50.0000	2.1675
135.9206	50.0000	2.1658
136.0203	50.0000	2.1637
136.1207	50.0000	2.1658
136.2203	50.0000	2.1573
136.3207	50.0000	2.1609
136.4208	50.0000	2.1664
136.5209	50.0000	2.1612
136.6217	50.0000	2.1680
136.7221	50.0000	2.1627
136.8213	50.0000	2.1643
136.9225	50.0000	2.1614
137.0231	50.0000	2.1629
137.1231	50.0000	2.1618
137.2230	50.0000	2.1650
137.3232	50.0000	2.1581
137.4232	50.0000	2.1614
137.5231	50.0000	2.1690
137.6232	50.0000	2.1647
137.7232	50.0000	2.1621
137.8253	50.0000	2.1745
137.9262	50.0000	2.1634
138.0256	50.0000	2.1645
138.1254	50.0000	2.1589
138.2255	50.0000	2.1692
138.3256	50.0000	2.1639
138.4264	50.0000	2.1630
138.5266	50.0000	2.1647
138.6266	50.0000	2.1715
138.7263	50.0000	2.1599
138.8264	50.0000	2.1652
138.9273	50.0000	2.1677
139.0281	50.0000	2.1647
139.1280	50.0000	2.1689
139.2281	50.0000	2.1691
139.3283	50.0000	2.1659
139.4293	50.0000	2.1593
139.5293	50.0000	2.1707
139.6298	50.0000	2.1628
139.7296	50.0000	2.1611
139.8299	50.0000	2.1571
139.9303	50.0000	2.1650
140.0305	50.0000	2.1628
140.1305	50.0000	2.1656
140.2304	50.0000	2.1636
140.3304	50.0000	2.1569
140.4309	50.0000	2.1656
140.5313	50.0000	2.1615
140.6323	50.0000	2.1670
140.7332	50.0000	2.1601
140.8339	50.0000	2.1593
140.9351	50.0000	2.1629
141.0349	50.0000	2.1693
141.1347	50.0000	2.1603
141.2345	50.0000	2.1639
141.3362	50.0000	2.1607
141.4354	50.0000	2.1675
141.5353	50.0000	2.1656
141.6355	50.0000	2.1592
141.7355	50.0000	2.1686
141.8356	50.0000	2.1716
141.9370	50.0000	2.1619
142.0373	50.0000	2.1627
142.1380	50.0000	2.1684
142.2376	50.0000	2.1607
142.3380	50.0000	2.1604
142.4375	50.0000	2.1634
142.5378	50.0000	2.1624
142.6384	50.0000	2.1618
142.7388	50.0000	2.1575
142.8386	50.0000	2.1589
142.9391	50.0000	2.1626
143.0388	50.0000	2.1657
143.1387	50.0000	2.1659
143.2394	50.0000	2.1548
143.3399	50.0000	2.1659
143.4403	50.0000	2.1635
143.5413	50.0000	2.1626
143.6413	50.0000	2.1646
143.7413	50.0000	2.1683
143.8421	50.0000	2.1646
143.9416	50.0000	2.1655
144.0424	50.0000	2.1672
144.1432	50.0000	2.1625
144.2432	50.0000	2.1664
144.3432	50.0000	2.1698
144.4432	50.0000	2.1661
144.5432	50.0000	2.1690
144.6428	50.0000	2.1610
144.7429	50.0000	2.1589
144.8432	50.0000	2.1622
144.9441	50.0000	2.1689
145.0441	50.0000	2.1718
145.1437	50.0000	2.1670
145.2434	50.0000	2.1623
145.3442	50.0000	2.1614
145.4439	50.0000	2.1617
145.5436	50.0000	2.1655
145.6434	50.0000	2.1695
145.7441	50.0000	2.1595
145.8439	50.0000	2.1686
145.9433	50.0000	2.1590
146.0434	50.0000	2.1639
146.1434	50.0000	2.1697
146.2454	50.0000	2.1660
146.3457	50.0000	2.1679
146.4472	50.0000	2.1706
146.5464	50.0000	2.1582
146.6463	50.0000	2.1593
146.7476	50.0000	2.1638
146.8484	50.0000	2.1701
146.9486	50.0000	2.1722
147.0485	50.0000	2.1695
147.1483	50.0000	2.1639
147.2495	50.0000	2.1578
147.3494	50.0000	2.1604
147.4494	50.0000	2.1576
147.5504	50.0000	2.1566
147.6509	50.0000	2.1618
147.7509	50.0000	2.1671
147.8518	50.0000	2.1588
147.9522	50.0000	2.1632
148.0521	50.0000	2.1568
148.1517	50.0000	2.1614
148.2517	50.0000	2.1602
148.3518	50.0000	2.1620
148.4528	50.0000	2.1559
148.5533	50.0000	2.1663
148.6526	50.0000	2.1641
148.7532	50.0000	2.1614
148.8531	50.0000	2.1638
148.9533	50.0000	2.1709
149.0532	50.0000	2.1668
149.1533	50.0000	2.1646
149.2529	50.0000	2.1633
149.3533	50.0000	2.1617
149.4532	50.0000	2.1615
149.5529	50.0000	2.1690
149.6530	50.0000	2.1723
149.7529	50.0000	2.1645
149.8532	50.0000	2.1630
149.9524	50.0000	2.1645
150.0532	50.0000	2.1717
150.1533	50.0000	2.1714
150.2533	50.0000	2.1629
150.3532	50.0000	2.1691
150.4526	50.0000	2.1655
150.5528	50.0000	2.1697
150.6533	50.0000	2.1652
150.7525	50.0000	2.1593
150.8529	50.0000	2.1626
150.9533	50.0000	2.1648
151.0533	50.0000	2.1663
151.1533	50.0000	2.1683
151.2533	50.0000	2.1616
151.3526	50.0000	2.1612
151.4532	50.0000	2.1653
151.5533	50.0000	2.1654
151.6539	50.0000	2.1539
151.7534	50.0000	2.1599
151.8538	50.0000	2.1657
151.9550	50.0000	2.1603
152.0544	50.0000	2.1622
152.1545	50.0000	2.1649
152.2547	50.0000	2.1664
152.3559	50.0000	2.1642
152.4559	50.0000	2.1613
152.5574	50.0000	2.1652
152.6581	50.0000	2.1641
152.7580	50.0000	2.1656
152.8584	50.0000	2.1628
152.9585	50.0000	2.1645
153.0591	50.0000	2.1608
153.1594	50.0000	2.1651
153.2599	50.0000	2.1625
153.3603	50.0000	2.1917
153.4603	50.0000	2.1695
153.5603	50.0000	2.1674
153.6597	50.0000	2.1640
153.7595	50.0000	2.6146
153.8604	50.0000	2.4801
153.9610	50.0000	2.9914
154.0612	50.0000	3.2198
154.1606	50.0000	3.1620
154.2610	50.0000	3.2213
154.3609	50.0000	3.3239
154.4611	50.0000	3.3781
154.5612	50.0000	3.1822
154.6613	50.0000	3.6825
154.7612	50.0000	3.3949
154.8607	50.0000	3.5515
154.9610	50.0000	3.5713
155.0610	50.0000	3.6207
155.1612	50.0000	3.6356
155.2614	50.0000	3.6273
155.3614	50.0000	3.6433
155.4625	50.0000	3.6264
155.5632	50.0000	3.6326
155.6633	50.0000	3.6275
155.7633	50.0000	3.6320
155.8633	50.0000	3.6315
155.9634	50.0000	3.6274
156.0629	50.0000	3.6301
156.1633	50.0000	3.6431
156.2633	50.0000	3.6287
156.3634	50.0000	3.6298
156.4635	50.0000	3.6252
156.5654	50.0000	3.6314
156.6657	50.0000	3.6289
156.7657	50.0000	3.6326
156.8657	50.0000	3.6219
156.9674	50.0000	3.6297
157.0671	50.0000	3.6349
157.1671	50.0000	3.6330
157.2666	50.0000	3.6225
157.3672	50.0000	3.6235
157.4674	50.0000	3.6356
157.5682	50.0000	3.6258
157.6679	50.0000	3.6200
157.7681	50.0000	3.6397
157.8682	50.0000	3.6364
157.9682	50.0000	3.6378
158.0683	50.0000	3.6332
158.1680	50.0000	3.6302
158.2684	50.0000	3.6205
158.3685	50.0000	3.6324
158.4686	50.0000	3.6333
158.5687	50.0000	3.6315
158.6689	50.0000	3.6296
158.7693	50.0000	3.6253
158.8693	50.0000	3.6257
158.9694	50.0000	3.6315
159.0698	50.0000	3.6339
159.1699	50.0000	3.6292
159.2700	50.0000	3.6234
159.3695	50.0000	3.6319
159.4705	50.0000	3.6379
159.5714	50.0000	3.6299
159.6708	50.0000	3.6357
159.7708	50.0000	3.6321
159.8709	50.0000	3.6248
159.9708	50.0000	3.6223
160.0708	50.0000	3.6384
160.1709	50.0000	3.6351
160.2708	50.0000	3.6285
160.3709	50.0000	3.6296
160.4705	50.0000	3.6335
160.5713	50.0000	3.6290
160.6706	50.0000	3.6280
160.7709	50.0000	3.6390
160.8710	50.0000	3.6226
160.9711	50.0000	3.6275
161.0712	50.0000	3.6262
161.1714	50.0000	3.6257
161.2714	50.0000	3.6303
161.3720	50.0000	3.6267
161.4729	50.0000	3.6316
161.5734	50.0000	3.6312
161.6730	50.0000	3.6272
161.7734	50.0000	3.6310
161.8729	50.0000	3.6303
161.9731	50.0000	3.6274
162.0734	50.0000	3.6248
162.1729	50.0000	3.6377
162.2729	50.0000	3.6309
162.3725	50.0000	3.6302
162.4732	50.0000	3.6265
162.5727	50.0000	3.6279
162.6730	50.0000	3.6307
162.7734	50.0000	3.6327
162.8734	50.0000	3.6322
162.9734	50.0000	3.6311
163.0731	50.0000	3.6309
163.1735	50.0000	3.6277
163.2735	50.0000	3.6339
163.3751	50.0000	3.6319
163.4749	50.0000	3.6329
163.5750	50.0000	3.6378
163.6751	50.0000	3.6277
163.7745	50.0000	3.6344
163.8751	50.0000	3.6277
163.9765	50.0000	3.6256
164.0767	50.0000	3.6355
164.1769	50.0000	3.6289
164.2774	50.0000	3.6370
164.3770	50.0000	3.6341
164.4768	50.0000	3.6340
164.5769	50.0000	3.6369
164.6767	50.0000	3.6287
164.7768	50.0000	3.6313
164.8766	50.0000	3.6300
164.9776	50.0000	3.6316
165.0780	50.0000	3.6317
165.1785	50.0000	3.6357
165.2790	50.0000	3.6391
165.3788	50.0000	3.6284
165.4793	50.0000	3.6359
165.5785	50.0000	3.6269
165.6785	50.0000	3.6316
165.7785	50.0000	3.6298
165.8786	50.0000	3.6279
165.9791	50.0000	3.6317
166.0790	50.0000	3.6306
166.1792	50.0000	3.6321
166.2794	50.0000	3.6299
166.3788	50.0000	3.6227
166.4789	50.0000	3.6314
166.5786	50.0000	3.6342
166.6787	50.0000	3.6307
166.7789	50.0000	3.6269
166.8789	50.0000	3.6247
166.9785	50.0000	3.6316
167.0791	50.0000	3.6265
167.1794	50.0000	3.6288
167.2795	50.0000	3.6273
167.3796	50.0000	3.6285
167.4797	50.0000	3.6389
167.5801	50.0000	3.6256
167.6795	50.0000	3.6274
167.7802	50.0000	3.6268
167.8795	50.0000	3.6323
167.9800	50.0000	3.6346
168.0799	50.0000	3.6338
168.1801	50.0000	3.6261
168.2800	50.0000	3.6322
168.3795	50.0000	3.6345
168.4807	50.0000	3.6341
168.5809	50.0000	3.6323
168.6814	50.0000	3.6310
168.7814	50.0000	3.6330
168.8814	50.0000	3.6345
168.9808	50.0000	3.6324
169.0809	50.0000	3.6296
169.1810	50.0000	3.6359
169.2807	50.0000	3.6306
169.3814	50.0000	3.6288
169.4815	50.0000	3.6337
169.5813	50.0000	3.6326
169.6811	50.0000	3.6296
169.7819	50.0000	3.6320
169.8819	50.0000	3.6329
169.9816	50.0000	3.6261
170.0815	50.0000	3.6359
170.1820	50.0000	3.6296
170.2826	50.0000	3.6314
170.3833	50.0000	3.6331
170.4834	50.0000	3.6256
170.5834	50.0000	3.6265
170.6830	50.0000	3.6254
170.7829	50.0000	3.6299
170.8834	50.0000	3.6337
170.9834	50.0000	3.6344
171.0834	50.0000	3.6332
171.1832	50.0000	3.6314
171.2830	50.0000	3.6218
171.3829	50.0000	3.6284
171.4830	50.0000	3.6285
171.5830	50.0000	3.6292
171.6833	50.0000	3.6324
171.7835	50.0000	3.6292
171.8834	50.0000	3.6324
171.9826	50.0000	3.6301
172.0833	50.0000	3.6328
172.1834	50.0000	3.6311
172.2834	50.0000	3.6246
172.3831	50.0000	3.6301
172.4833	50.0000	3.6299
172.5834	50.0000	3.6310
172.6835	50.0000	3.6318
172.7835	50.0000	3.6336
172.8830	50.0000	3.6337
172.9830	50.0000	3.6284
173.0843	50.0000	3.6292
173.1835	50.0000	3.6317
173.2836	50.0000	3.6281
173.3836	50.0000	3.6321
173.4855	50.0000	3.6288
173.5850	50.0000	3.6290
173.6848	50.0000	3.6271
173.7848	50.0000	3.6354
173.8863	50.0000	3.6278
173.9858	50.0000	3.6303
174.0858	50.0000	3.6261
174.1859	50.0000	3.6290
174.2859	50.0000	3.6330
174.3859	50.0000	3.6417
174.4858	50.0000	3.6341
174.5856	50.0000	3.6306
174.6858	50.0000	3.6292
174.7857	50.0000	3.6605
174.8857	50.0000	3.7239
174.9859	50.0000	3.6818
175.0859	50.0000	4.4472
175.1859	50.0000	4.3944
175.2876	50.0000	4.4374
175.3893	50.0000	4.3149
175.4886	50.0000	4.1715
175.5889	50.0000	4.3763
175.6890	50.0000	4.0591
175.7896	50.0000	4.1867
175.8897	50.0000	3.8121
175.9905	50.0000	2.6274
176.0908	50.0000	2.0290
176.1924	50.0000	1.7975
176.2922	50.0000	1.7138
176.3924	50.0000	1.6997
176.4920	50.0000	1.8565
176.5919	50.0000	1.9056
176.6919	50.0000	1.8497
176.7922	50.0000	2.5142
176.8924	50.0000	2.0916
176.9924	50.0000	1.5913
177.0925	50.0000	2.6225
177.1927	50.0000	2.2478
177.2935	50.0000	2.2017
177.3935	50.0000	2.1923
177.4935	50.0000	2.1925
177.5931	50.0000	2.1741
177.6934	50.0000	2.1910
177.7935	50.0000	2.1942
177.8935	50.0000	2.2001
177.9934	50.0000	2.1899
178.0935	50.0000	2.1978
178.1939	50.0000	2.1956
178.2942	50.0000	2.1954
178.3940	50.0000	2.1829
178.4941	50.0000	2.1934
178.5955	50.0000	2.1910
178.6955	50.0000	2.1922
178.7953	50.0000	2.1989
178.8952	50.0000	2.1925
178.9952	50.0000	2.1945
179.0950	50.0000	2.1929
179.1964	50.0000	2.1914
179.2960	50.0000	2.1891
179.3957	50.0000	2.1944
179.4959	50.0000	2.1909
179.5958	50.0000	2.1909
179.6958	50.0000	2.1927
179.7959	50.0000	2.1910
179.8957	50.0000	2.1927
179.9960	50.0000	2.2004
180.0959	50.0000	2.1930
180.1957	50.0000	2.1975
180.2960	50.0000	2.1960
180.3957	50.0000	2.1969
180.4959	50.0000	2.1927
180.5958	50.0000	2.1911
180.6959	50.0000	2.2038
180.7959	50.0000	2.1930
180.8968	50.0000	2.1966
180.9980	50.0000	2.1910
181.0987	50.0000	2.1940
181.1994	50.0000	2.1977
181.2994	50.0000	2.1966
181.4005	50.0000	2.1962
181.5006	50.0000	2.1952
181.6017	50.0000	2.1896
181.7017	50.0000	2.1930
181.8016	50.0000	2.1960
181.9021	50.0000	2.1973
182.0020	50.0000	2.1905
182.1020	50.0000	2.1969
182.2028	50.0000	2.1880
182.3036	50.0000	2.1932
182.4035	50.0000	2.1928
182.5032	50.0000	2.1922
182.6036	50.0000	2.1914
182.7042	50.0000	2.1962
182.8056	50.0000	2.1970
182.9053	50.0000	2.1940
183.0053	50.0000	2.1938
183.1053	50.0000	2.1892
183.2051	50.0000	2.1947
183.3048	50.0000	2.1925
183.4056	50.0000	2.1921
183.5053	50.0000	2.1924
183.6050	50.0000	2.1936
183.7047	50.0000	2.1939
183.8049	50.0000	2.1977
183.9055	50.0000	2.1936
184.0058	50.0000	2.1997
184.1067	50.0000	2.1928
184.2070	50.0000	2.1908
184.3075	50.0000	2.1917
184.4087	50.0000	2.1929
184.5090	50.0000	2.1919
184.6086	50.0000	2.1966
184.7092	50.0000	2.1911
184.8093	50.0000	2.1926
184.9098	50.0000	2.1924
185.0107	50.0000	2.1938
185.1109	50.0000	2.1875
185.2116	50.0000	2.1897
185.3116	50.0000	2.1938
185.4127	50.0000	2.1902
185.5136	50.0000	2.1929
185.6135	50.0000	2.1938
185.7133	50.0000	2.1963
185.8134	50.0000	2.1972
185.9135	50.0000	2.1920
186.0136	50.0000	2.1973
186.1136	50.0000	2.1961
186.2136	50.0000	2.1940
186.3136	50.0000	2.1961
186.4136	50.0000	2.1919
186.5135	50.0000	2.1934
186.6136	50.0000	2.1883
186.7130	50.0000	2.1965
186.8133	50.0000	2.1954
186.9145	50.0000	2.1978
187.0157	50.0000	2.1947
187.1159	50.0000	2.1960
187.2160	50.0000	2.1919
187.3160	50.0000	2.1929
187.4158	50.0000	2.1919
187.5160	50.0000	2.1962
187.6159	50.0000	2.1944
187.7160	50.0000	2.1915
187.8160	50.0000	2.1964
187.9159	50.0000	2.1986
188.0167	50.0000	2.1906
188.1167	50.0000	2.1945
188.2173	50.0000	2.1936
188.3180	50.0000	2.1957
188.4181	50.0000	2.1967
188.5183	50.0000	2.1957
188.6187	50.0000	2.1915
188.7187	50.0000	2.1945
188.8204	50.0000	2.1901
188.9202	50.0000	2.1922
189.0199	50.0000	2.1929
189.1204	50.0000	2.1980
189.2201	50.0000	2.1924
189.3202	50.0000	2.1892
189.4202	50.0000	2.1939
189.5204	50.0000	2.1931
189.6206	50.0000	2.1927
189.7208	50.0000	2.1910
189.8208	50.0000	2.1924
189.9208	50.0000	2.1919
190.0209	50.0000	2.1926
190.1212	50.0000	2.1908
190.2213	50.0000	2.1874
190.3213	50.0000	2.1933
190.4213	50.0000	2.1936
190.5214	50.0000	2.1939
190.6216	50.0000	2.1918
190.7214	50.0000	2.1931
190.8213	50.0000	2.1922
190.9214	50.0000	2.1925
191.0214	50.0000	2.1969
191.1211	50.0000	2.1922
191.2213	50.0000	2.1923
191.3216	50.0000	2.1931
191.4212	50.0000	2.1958
191.5212	50.0000	2.1946
191.6213	50.0000	2.1998
191.7214	50.0000	2.1909
191.8213	50.0000	2.1933
191.9214	50.0000	2.1973
192.0217	50.0000	2.1924
192.1211	50.0000	2.1967
192.2212	50.0000	2.1880
192.3211	50.0000	2.1943
192.4211	50.0000	2.1949
192.5213	50.0000	2.1951
192.6211	50.0000	2.1924
192.7212	50.0000	2.1970
192.8213	50.0000	2.1934
192.9216	50.0000	2.1971
193.0207	50.0000	2.1893
193.1208	50.0000	2.1914
193.2211	50.0000	2.1930
193.3210	50.0000	2.1929
193.4211	50.0000	2.1914
193.5211	50.0000	2.1912
193.6212	50.0000	2.1904
193.7212	50.0000	2.1909
193.8213	50.0000	2.1916
193.9215	50.0000	2.1928
194.0216	50.0000	2.1922
194.1210	50.0000	2.1934
194.2209	50.0000	2.1919
194.3226	50.0000	2.1923
194.4222	50.0000	2.1938
194.5221	50.0000	2.1934
194.6222	50.0000	2.1929
194.7224	50.0000	2.1875
194.8225	50.0000	2.1937
194.9225	50.0000	2.1922
195.0225	50.0000	2.1960
195.1225	50.0000	2.1925
195.2224	50.0000	2.1950
195.3228	50.0000	2.1934
195.4233	50.0000	2.1944
195.5231	50.0000	2.1937
195.6236	50.0000	2.1944
195.7236	50.0000	2.1952
195.8235	50.0000	2.1961
195.9236	50.0000	2.1954
196.0235	50.0000	2.1950
196.1237	50.0000	2.1935
196.2237	50.0000	2.1961
196.3231	50.0000	2.1938
196.4237	50.0000	2.1922
196.5236	50.0000	2.1951
196.6236	50.0000	2.1960
196.7237	50.0000	2.1952
196.8237	50.0000	2.1919
196.9236	50.0000	2.1937
197.0230	50.0000	2.1894
197.1237	50.0000	2.1926
197.2237	50.0000	2.1917
197.3237	50.0000	2.1989
197.4234	50.0000	2.1959
197.5237	50.0000	2.1913
197.6235	50.0000	2.1945
197.7237	50.0000	2.1925
197.8232	50.0000	2.1938
197.9237	50.0000	2.1889
198.0236	50.0000	2.1920
198.1237	50.0000	2.1956
198.2234	50.0000	2.1951
198.3237	50.0000	2.1919
198.4236	50.0000	2.1958
198.5237	50.0000	2.1942
198.6257	50.0000	2.1966
198.7262	50.0000	2.1923
198.8260	50.0000	2.1938
198.9261	50.0000	2.1926
199.0261	50.0000	2.1883
199.1259	50.0000	2.1914
199.2261	50.0000	2.1940
199.3260	50.0000	2.1904
199.4269	50.0000	2.1980
199.5274	50.0000	2.1897
199.6271	50.0000	2.1961
199.7270	50.0000	2.1911
199.8278	50.0000	2.1958
199.9281	50.0000	2.1938
200.0281	50.0000	2.1922
200.1282	50.0000	2.1916
200.2285	50.0000	2.1912
200.3282	50.0000	2.4884
200.4284	50.0000	2.4238
200.5287	50.0000	2.8691
200.6287	50.0000	3.1146
200.7287	50.0000	3.4962
200.8283	50.0000	3.7287
200.9286	50.0000	3.8895
201.0288	50.0000	3.5880
201.1289	50.0000	3.8035
201.2290	50.0000	4.2207
201.3297	50.0000	3.9825
201.4291	50.0000	4.2570
201.5292	50.0000	3.9337
201.6292	50.0000	4.1310
201.7296	50.0000	4.1334
201.8290	50.0000	3.9896
201.9293	50.0000	4.1074
202.0290	50.0000	4.1024
202.1297	50.0000	4.0600
202.2291	50.0000	4.0917
202.3293	50.0000	4.0925
202.4300	50.0000	4.0706
202.5299	50.0000	4.0768
202.6303	50.0000	4.0811
202.7305	50.0000	4.0790
202.8304	50.0000	4.0825
202.9307	50.0000	4.0870
203.0308	50.0000	4.0787
203.1309	50.0000	4.0787
203.2309	50.0000	4.0783
203.3310	50.0000	4.0848
203.4312	50.0000	4.0804
203.5314	50.0000	4.0837
203.6313	50.0000	4.0773
203.7309	50.0000	4.0804
203.8310	50.0000	4.0800
203.9310	50.0000	4.0879
204.0311	50.0000	4.0771
204.1318	50.0000	4.0852
204.2319	50.0000	4.0752
204.3325	50.0000	4.0842
204.4328	50.0000	4.0836
204.5332	50.0000	4.0822
204.6343	50.0000	4.0828
204.7341	50.0000	4.0766
204.8350	50.0000	4.0813
204.9353	50.0000	4.0795
205.0356	50.0000	4.0800
205.1349	50.0000	4.0771
205.2359	50.0000	4.0835
205.3362	50.0000	4.0848
205.4362	50.0000	4.0780
205.5362	50.0000	4.0837
205.6361	50.0000	4.0790
205.7361	50.0000	4.0820
205.8360	50.0000	4.0775
205.9361	50.0000	4.0836
206.0367	50.0000	4.0807
206.1368	50.0000	4.0818
206.2370	50.0000	4.0849
206.3387	50.0000	4.0813
206.4384	50.0000	4.0782
206.5382	50.0000	4.0813
206.6379	50.0000	4.0830
206.7387	50.0000	4.0775
206.8384	50.0000	4.0806
206.9381	50.0000	4.0807
207.0380	50.0000	4.0779
207.1390	50.0000	4.0797
207.2390	50.0000	4.0805
207.3392	50.0000	4.0801
207.4395	50.0000	4.0845
207.5395	50.0000	4.0831
207.6400	50.0000	4.0792
207.7401	50.0000	4.0818
207.8404	50.0000	4.0811
207.9408	50.0000	4.0821
208.0418	50.0000	4.0804
208.1428	50.0000	4.0789
208.2427	50.0000	4.0818
208.3428	50.0000	4.0813
208.4418	50.0000	4.0827
208.5431	50.0000	4.0731
208.6438	50.0000	4.0846
208.7438	50.0000	4.0785
208.8438	50.0000	4.0805
208.9442	50.0000	4.0826
209.0459	50.0000	4.0766
209.1458	50.0000	4.0808
209.2462	50.0000	4.0820
209.3462	50.0000	4.0781
209.4461	50.0000	4.0752
209.5462	50.0000	4.0780
209.6462	50.0000	4.0820
209.7459	50.0000	4.0842
209.8461	50.0000	4.0809
209.9462	50.0000	4.0811
210.0464	50.0000	4.0832
210.1462	50.0000	4.0834
210.2459	50.0000	4.0799
210.3460	50.0000	4.0809
210.4461	50.0000	4.0775
210.5462	50.0000	4.0815
210.6459	50.0000	4.0832
210.7462	50.0000	4.0771
210.8461	50.0000	4.0831
210.9466	50.0000	4.0796
211.0462	50.0000	4.0787
211.1462	50.0000	4.0798
211.2462	50.0000	4.0840
211.3461	50.0000	4.0775
211.4462	50.0000	4.0765
211.5461	50.0000	4.0810
211.6462	50.0000	4.0817
211.7459	50.0000	4.0839
211.8462	50.0000	4.0805
211.9462	50.0000	4.0835
212.0461	50.0000	4.0791
212.1462	50.0000	4.0777
212.2462	50.0000	4.0813
212.3462	50.0000	4.0809
212.4463	50.0000	4.0805
212.5459	50.0000	4.0787
212.6462	50.0000	4.0791
212.7459	50.0000	4.0845
212.8460	50.0000	4.0809
212.9462	50.0000	4.0841
213.0462	50.0000	4.0804
213.1462	50.0000	4.0798
213.2462	50.0000	4.0781
213.3462	50.0000	4.0806
213.4467	50.0000	4.0797
213.5462	50.0000	4.0815
213.6460	50.0000	4.0814
213.7463	50.0000	4.0806
213.8462	50.0000	4.0789
213.9463	50.0000	4.0812
214.0462	50.0000	4.0784
214.1459	50.0000	4.0803
214.2463	50.0000	4.0803
214.3461	50.0000	4.0791
214.4463	50.0000	4.0799
214.5461	50.0000	4.0815
214.6462	50.0000	4.0830
214.7462	50.0000	4.0825
214.8462	50.0000	4.0804
214.9462	50.0000	4.0813
215.0480	50.0000	4.0813
215.1486	50.0000	4.0804
215.2481	50.0000	4.0791
215.3486	50.0000	4.0792
215.4495	50.0000	4.0798
215.5496	50.0000	4.0820
215.6491	50.0000	4.0821
215.7495	50.0000	4.0834
215.8496	50.0000	4.0818
215.9494	50.0000	4.0803
216.0490	50.0000	4.0816
216.1494	50.0000	4.0808
216.2499	50.0000	4.0824
216.3507	50.0000	4.0806
216.4506	50.0000	4.0810
216.5506	50.0000	4.0786
216.6505	50.0000	4.0805
216.7505	50.0000	4.0810
216.8507	50.0000	4.0817
216.9510	50.0000	4.0793
217.0520	50.0000	4.0805
217.1525	50.0000	4.0808
217.2523	50.0000	4.0808
217.3526	50.0000	4.0826
217.4526	50.0000	4.0815
217.5526	50.0000	4.0798
217.6536	50.0000	4.0810
217.7536	50.0000	4.0810
217.8539	50.0000	4.0794
217.9539	50.0000	4.0805
218.0539	50.0000	4.0815
218.1539	50.0000	4.0823
218.2539	50.0000	4.0824
218.3560	50.0000	4.0775
218.4563	50.0000	4.0797
218.5563	50.0000	4.0811
218.6563	50.0000	4.0806
218.7560	50.0000	4.0826
218.8572	50.0000	4.0785
218.9573	50.0000	4.0815
219.0575	50.0000	4.0792
219.1573	50.0000	4.0778
219.2571	50.0000	4.0777
219.3575	50.0000	4.0788
219.4572	50.0000	4.0791
219.5580	50.0000	4.0795
219.6584	50.0000	4.0789
219.7598	50.0000	4.0780
219.8598	50.0000	4.0807
219.9599	50.0000	4.0813
220.0595	50.0000	4.0794
220.1594	50.0000	4.0775
220.2602	50.0000	4.0782
220.3606	50.0000	4.0789
220.4608	50.0000	4.0782
220.5610	50.0000	4.0803
220.6628	50.0000	4.0783
220.7625	50.0000	4.0815
220.8631	50.0000	4.0788
220.9636	50.0000	4.0809
221.0634	50.0000	4.0795
221.1639	50.0000	4.0786
221.2639	50.0000	4.0837
221.3639	50.0000	4.1055
221.4638	50.0000	4.1308
221.5639	50.0000	4.6064
221.6636	50.0000	4.7029
221.7638	50.0000	5.0481
221.8634	50.0000	4.9315
221.9634	50.0000	4.8794
222.0639	50.0000	4.8554
222.1639	50.0000	4.9298
222.2639	50.0000	4.7671
222.3639	50.0000	4.7070
222.4636	50.0000	4.2589
222.5634	50.0000	4.1240
222.6640	50.0000	3.9294
222.7661	50.0000	3.8470
222.8662	50.0000	3.5692
222.9663	50.0000	4.2333
223.0663	50.0000	4.2231
223.1663	50.0000	3.7859
223.2661	50.0000	3.9196
223.3676	50.0000	3.9758
223.4673	50.0000	4.0408
223.5681	50.0000	3.2554
223.6682	50.0000	3.4601
223.7681	50.0000	3.5548
223.8687	50.0000	3.2802
223.9682	50.0000	3.6005
224.0699	50.0000	3.4641
224.1700	50.0000	4.0701
224.2707	50.0000	4.2056
224.3711	50.0000	4.6094
224.4713	50.0000	5.0475
224.5712	50.0000	5.6557
224.6720	50.0000	5.8351
224.7732	50.0000	5.7215
224.8745	50.0000	5.4772
224.9747	50.0000	4.9071
225.0760	50.0000	3.9586
225.1763	50.0000	3.6094
225.2764	50.0000	3.2956
225.3771	50.0000	3.7403
225.4781	50.0000	4.1884
225.5792	50.0000	5.3023
225.6793	50.0000	5.8450
225.7796	50.0000	5.5540
225.8794	50.0000	5.3867
225.9793	50.0000	5.5175
226.0791	50.0000	5.5624
226.1794	50.0000	5.4443
226.2799	50.0000	5.0622
226.3802	50.0000	4.9576
226.4802	50.0000	5.1513
226.5812	50.0000	5.1333
226.6817	50.0000	5.1414
226.7816	50.0000	5.5189
226.8818	50.0000	5.6270
226.9820	50.0000	5.5339
227.0817	50.0000	5.6705
227.1813	50.0000	5.2435
227.2815	50.0000	4.8668
227.3817	50.0000	4.5162
227.4818	50.0000	3.5729
227.5818	50.0000	2.5657
227.6816	50.0000	2.3849
227.7816	50.0000	1.9437
227.8816	50.0000	2.4573
227.9816	50.0000	2.5906
228.0816	50.0000	2.5524
228.1818	50.0000	2.5588
228.2818	50.0000	2.6088
228.3813	50.0000	2.5764
228.4816	50.0000	2.6304
228.5812	50.0000	2.6116
228.6812	50.0000	2.5956
228.7820	50.0000	2.6194
228.8838	50.0000	2.6131
228.9840	50.0000	2.6039
229.0831	50.0000	2.6120
229.1835	50.0000	2.6124
229.2840	50.0000	2.6089
229.3840	50.0000	2.6096
229.4838	50.0000	2.6128
229.5840	50.0000	2.6115
229.6838	50.0000	2.6107
229.7838	50.0000	2.6118
229.8840	50.0000	2.6107
229.9838	50.0000	2.6120
230.0840	50.0000	2.6122
230.1851	50.0000	2.6086
230.2856	50.0000	2.6113
230.3857	50.0000	2.6131
230.4856	50.0000	2.6087
230.5853	50.0000	2.6123
230.6857	50.0000	2.6124
230.7864	50.0000	2.6119
230.8863	50.0000	2.6116
230.9861	50.0000	2.6126
231.0864	50.0000	2.6104
231.1878	50.0000	2.6114
231.2871	50.0000	2.7029
231.3870	50.0000	2.6620
231.4890	50.0000	2.5901
231.5887	50.0000	2.5760
231.6890	50.0000	2.5793
231.7890	50.0000	2.5923
231.8882	50.0000	2.5957
231.9898	50.0000	2.5926
232.0900	50.0000	2.5976
232.1894	50.0000	2.6037
232.2899	50.0000	2.6104
232.3895	50.0000	2.6142
232.4895	50.0000	2.6123
232.5897	50.0000	2.6108
232.6901	50.0000	2.6116
232.7912	50.0000	2.6105
232.8914	50.0000	2.6104
232.9922	50.0000	2.6106
233.0922	50.0000	2.6110
233.1921	50.0000	2.6169
233.2921	50.0000	2.6109
233.3920	50.0000	2.6092
233.4922	50.0000	2.6127
233.5922	50.0000	2.6123
233.6931	50.0000	2.6097
233.7939	50.0000	2.6111
233.8941	50.0000	2.6120
233.9960	50.0000	2.6136
234.0955	50.0000	2.6119
234.1954	50.0000	2.6105
234.2960	50.0000	2.6114
234.3957	50.0000	2.6119
234.4956	50.0000	2.6075
234.5971	50.0000	2.6125
234.6980	50.0000	2.6121
234.7973	50.0000	2.6089
234.8975	50.0000	2.6139
234.9974	50.0000	2.6104
235.0982	50.0000	2.6119
235.1990	50.0000	2.6113
235.2988	50.0000	2.6109
235.3988	50.0000	2.6096
235.4985	50.0000	2.6152
235.5986	50.0000	2.6081
235.6985	50.0000	2.6155
235.7984	50.0000	2.6119
235.8984	50.0000	2.6128
235.9985	50.0000	2.6061
236.0985	50.0000	2.6086
236.1982	50.0000	2.6125
236.2989	50.0000	2.6161
236.3988	50.0000	2.6091
236.4983	50.0000	2.6133
236.5996	50.0000	2.6139
236.6994	50.0000	2.6074
236.7997	50.0000	2.6106
236.8998	50.0000	2.6116
236.9996	50.0000	2.6140
237.1002	50.0000	2.6103
237.2006	50.0000	2.6079
237.3013	50.0000	2.6126
237.4013	50.0000	2.6092
237.5026	50.0000	2.6111
237.6028	50.0000	2.6096
237.7021	50.0000	2.6167
237.8033	50.0000	2.6088
237.9036	50.0000	2.6137
238.0041	50.0000	2.6120
238.1040	50.0000	2.6127
238.2041	50.0000	2.6112
238.3041	50.0000	2.6106
238.4040	50.0000	2.6113
238.5041	50.0000	2.6138
238.6040	50.0000	2.6068
238.7041	50.0000	2.6124
238.8040	50.0000	2.6102
238.9035	50.0000	2.6079
239.0040	50.0000	2.6159
239.1036	50.0000	2.6123
239.2041	50.0000	2.6112
239.3041	50.0000	2.6096
239.4041	50.0000	2.6099
239.5041	50.0000	2.6109
239.6040	50.0000	2.6114
239.7040	50.0000	2.6091
239.8040	50.0000	2.6109
239.9040	50.0000	2.6106
240.0040	50.0000	2.6113
240.1033	50.0000	2.6118
240.2032	50.0000	2.6127
240.3040	50.0000	2.6127
240.4040	50.0000	2.6091
240.5040	50.0000	2.6117
240.6040	50.0000	2.6071
240.7040	50.0000	2.6099
240.8040	50.0000	2.6118
240.9040	50.0000	2.6159
241.0040	50.0000	2.6108
241.1040	50.0000	2.6107
241.2039	50.0000	2.6112
241.3039	50.0000	2.6080
241.4040	50.0000	2.6102
241.5038	50.0000	2.6113
241.6041	50.0000	2.6125
241.7035	50.0000	2.6132
241.8047	50.0000	2.6104
241.9044	50.0000	2.6121
242.0061	50.0000	2.6093
242.1063	50.0000	2.6116
242.2065	50.0000	2.6105
242.3065	50.0000	2.6106
242.4065	50.0000	2.6125
242.5065	50.0000	2.6115
242.6073	50.0000	2.6111
242.7084	50.0000	2.6117
242.8091	50.0000	2.6107
242.9100	50.0000	2.6081
243.0102	50.0000	2.6124
243.1113	50.0000	2.6118
243.2114	50.0000	2.6094
243.3118	50.0000	2.6122
243.4130	50.0000	2.6105
243.5139	50.0000	2.6116
243.6134	50.0000	2.6104
243.7132	50.0000	2.6125
243.8140	50.0000	2.6073
243.9141	50.0000	2.6123
244.0141	50.0000	2.6111
244.1141	50.0000	2.6120
244.2139	50.0000	2.6117
244.3140	50.0000	2.6085
244.4139	50.0000	2.6140
244.5141	50.0000	2.6115
244.6141	50.0000	2.6108
244.7141	50.0000	2.6099
244.8138	50.0000	2.6112
244.9135	50.0000	2.6097
245.0141	50.0000	2.6103
245.1132	50.0000	2.6125
245.2141	50.0000	2.6125
245.3141	50.0000	2.6116
245.4141	50.0000	2.6105
245.5141	50.0000	2.6098
245.6141	50.0000	2.6159
245.7140	50.0000	2.6144
245.8136	50.0000	2.6098
245.9141	50.0000	2.6094
246.0141	50.0000	2.6114
246.1141	50.0000	2.6120
246.2140	50.0000	2.6133
246.3136	50.0000	2.6125
246.4141	50.0000	2.6130
246.5132	50.0000	2.6094
246.6141	50.0000	2.6100
246.7142	50.0000	2.6076
246.8150	50.0000	2.6116
246.9162	50.0000	2.6118
247.0165	50.0000	2.6141
247.1163	50.0000	2.6117
247.2181	50.0000	2.6137
247.3191	50.0000	2.6135
247.4184	50.0000	2.6113
247.5184	50.0000	2.6102
247.6194	50.0000	2.6131
247.7197	50.0000	2.6105
247.8199	50.0000	2.6104
247.9202	50.0000	2.6113
248.0202	50.0000	2.6115
248.1207	50.0000	2.6111
248.2203	50.0000	2.6104
248.3210	50.0000	2.6096
248.4211	50.0000	2.6103
248.5212	50.0000	2.6093
248.6215	50.0000	2.6148
248.7222	50.0000	2.6100
248.8222	50.0000	2.6113
248.9234	50.0000	2.6130
249.0237	50.0000	2.6090
249.1241	50.0000	2.6110
249.2237	50.0000	2.6106
249.3241	50.0000	2.6105
249.4235	50.0000	2.6085
249.5241	50.0000	2.6111
249.6249	50.0000	2.6094
249.7248	50.0000	2.6100
249.8246	50.0000	2.6102
249.9250	50.0000	2.6149
250.0262	50.0000	2.6096
250.1265	50.0000	2.6110
250.2266	50.0000	2.6103
250.3264	50.0000	2.6121
250.4266	50.0000	2.6114
250.5268	50.0000	2.6108
250.6265	50.0000	2.6111
250.7266	50.0000	2.6109
250.8265	50.0000	2.6125
250.9266	50.0000	2.6116
251.0280	50.0000	2.6137
251.1278	50.0000	2.6089
251.2278	50.0000	2.6108
251.3281	50.0000	2.6124
251.4280	50.0000	2.6087
251.5273	50.0000	2.6116
251.6285	50.0000	2.6120
251.7288	50.0000	2.6121
251.8294	50.0000	2.6116
251.9298	50.0000	2.6086
252.0300	50.0000	2.6076
252.1299	50.0000	2.6125
252.2304	50.0000	2.6105
252.3305	50.0000	2.6093
252.4306	50.0000	2.6116
252.5306	50.0000	2.6110
252.6306	50.0000	2.6065
252.7312	50.0000	2.6119
252.8312	50.0000	2.6086
252.9313	50.0000	2.6099
253.0323	50.0000	2.6109
253.1333	50.0000	2.6112
253.2341	50.0000	2.6116
253.3337	50.0000	2.6137
253.4338	50.0000	2.6122
253.5338	50.0000	2.6114
253.6337	50.0000	2.6078
253.7339	50.0000	2.6086
253.8341	50.0000	2.6112
253.9341	50.0000	2.6135
254.0341	50.0000	2.6100
254.1339	50.0000	2.6089
254.2338	50.0000	2.6105
254.3342	50.0000	2.6111
254.4341	50.0000	2.6114
254.5341	50.0000	2.6099
254.6341	50.0000	2.6076
254.7343	50.0000	2.6090
254.8353	50.0000	2.6101
254.9353	50.0000	2.6113
255.0371	50.0000	2.6081
255.1366	50.0000	2.6119
255.2366	50.0000	2.6093
255.3366	50.0000	2.6104
255.4362	50.0000	2.6072
255.5364	50.0000	2.6133
255.6365	50.0000	2.6130
255.7366	50.0000	2.6126
255.8366	50.0000	2.6089
255.9364	50.0000	2.6116
256.0374	50.0000	2.6096
256.1375	50.0000	2.6130
256.2378	50.0000	2.6120
256.3384	50.0000	2.6121
256.4387	50.0000	2.6111
256.5390	50.0000	2.6133
256.6393	50.0000	2.6089
256.7403	50.0000	2.6096
256.8409	50.0000	2.6086
256.9412	50.0000	2.6115
257.0407	50.0000	2.6089
257.1419	50.0000	2.6095
257.2422	50.0000	2.6084
257.3422	50.0000	2.6108
257.4422	50.0000	2.6089
257.5428	50.0000	2.6107
257.6436	50.0000	2.6101
257.7446	50.0000	2.6083
257.8456	50.0000	2.6112
257.9455	50.0000	2.6101
258.0457	50.0000	2.6103
258.1458	50.0000	2.6111
258.2467	50.0000	2.6098
258.3466	50.0000	2.6060
258.4484	50.0000	2.6125
258.5489	50.0000	2.6104
258.6489	50.0000	2.6105
258.7493	50.0000	2.6101
258.8498	50.0000	2.6122
258.9502	50.0000	2.6100
259.0504	50.0000	2.6121
259.1511	50.0000	2.6124
259.2508	50.0000	2.6126
259.3511	50.0000	2.6109
259.4512	50.0000	2.6103
259.5515	50.0000	2.6109
259.6517	50.0000	2.6136
259.7518	50.0000	2.6111
259.8521	50.0000	2.6115
259.9520	50.0000	2.6118
260.0521	50.0000	2.6117
260.1524	50.0000	2.6116
260.2534	50.0000	2.6109
260.3542	50.0000	2.6091
260.4540	50.0000	2.6143
260.5542	50.0000	2.6100
260.6542	50.0000	2.6097
260.7552	50.0000	2.6099
260.8553	50.0000	2.6171
260.9564	50.0000	2.6113
261.0566	50.0000	2.6115
261.1567	50.0000	2.6100
261.2566	50.0000	2.6140
261.3574	50.0000	2.6108
261.4577	50.0000	2.6122
261.5574	50.0000	2.6110
261.6579	50.0000	2.6122
261.7581	50.0000	2.6094
261.8581	50.0000	2.6096
261.9585	50.0000	2.6102
262.0592	50.0000	2.6136
262.1591	50.0000	2.6146
262.2583	50.0000	2.6098
262.3592	50.0000	2.6140
262.4594	50.0000	2.6120
262.5595	50.0000	2.6115
262.6606	50.0000	2.6109
262.7603	50.0000	2.6115
262.8604	50.0000	2.6097
262.9618	50.0000	2.6100
263.0615	50.0000	2.6101
263.1633	50.0000	2.6105
263.2623	50.0000	2.6070
263.3631	50.0000	2.6268
263.4633	50.0000	3.1364
263.5643	50.0000	2.6979
263.6642	50.0000	2.6306
263.7643	50.0000	2.6030
263.8645	50.0000	2.5528
263.9663	50.0000	2.0258
264.0659	50.0000	2.4835
264.1658	50.0000	3.1523
264.2656	50.0000	2.4499
264.3657	50.0000	2.6002
264.4655	50.0000	2.9799
264.5658	50.0000	2.5954
264.6659	50.0000	2.8213
264.7663	50.0000	2.7331
264.8661	50.0000	2.6031
264.9668	50.0000	2.6216
265.0667	50.0000	2.6198
265.1666	50.0000	2.6197
265.2674	50.0000	2.9934
265.3684	50.0000	3.1677
265.4686	50.0000	3.1585
265.5684	50.0000	3.4707
265.6693	50.0000	3.5412
265.7691	50.0000	3.8880
265.8692	50.0000	3.8774
265.9692	50.0000	3.5316
266.0693	50.0000	4.1118
266.1693	50.0000	4.6006
266.2694	50.0000	3.7677
266.3706	50.0000	3.9171
266.4706	50.0000	4.2843
266.5720	50.0000	3.9890
266.6721	50.0000	3.9771
266.7722	50.0000	4.0957
266.8721	50.0000	4.0939
266.9717	50.0000	4.0202
267.0730	50.0000	4.0297
267.1729	50.0000	4.0642
267.2731	50.0000	4.0479
267.3729	50.0000	4.0469
267.4726	50.0000	4.0500
267.5743	50.0000	4.0554
267.6741	50.0000	4.0497
267.7738	50.0000	4.0451
267.8736	50.0000	4.0484
267.9734	50.0000	4.0520
268.0752	50.0000	4.0534
268.1745	50.0000	4.0541
268.2744	50.0000	4.0505
268.3751	50.0000	4.0505
268.4762	50.0000	4.0460
268.5762	50.0000	4.0508
268.6761	50.0000	4.0521
268.7759	50.0000	4.0499
268.8754	50.0000	4.0468
268.9764	50.0000	4.0509
269.0766	50.0000	4.0474
269.1767	50.0000	4.0506
269.2767	50.0000	4.0508
269.3767	50.0000	4.0511
269.4775	50.0000	4.0498
269.5785	50.0000	4.0518
269.6786	50.0000	4.0474
269.7789	50.0000	4.0528
269.8790	50.0000	4.0493
269.9792	50.0000	4.0477
270.0789	50.0000	4.0487
270.1789	50.0000	4.0531
270.2793	50.0000	4.0488
270.3793	50.0000	4.0501
270.4794	50.0000	4.0464
270.5796	50.0000	4.0475
270.6798	50.0000	4.0501
270.7801	50.0000	4.0522
270.8801	50.0000	4.0496
270.9804	50.0000	4.0501
271.0810	50.0000	4.0508
271.1812	50.0000	4.0514
271.2815	50.0000	4.0495
271.3820	50.0000	4.0510
271.4817	50.0000	4.0494
271.5823	50.0000	4.0496
271.6824	50.0000	4.0495
271.7833	50.0000	4.0480
271.8831	50.0000	4.0501
271.9827	50.0000	4.0523
272.0834	50.0000	4.0482
272.1843	50.0000	4.0502
272.2852	50.0000	4.0520
272.3848	50.0000	4.0514
272.4854	50.0000	4.0498
272.5861	50.0000	4.0525
272.6857	50.0000	4.0488
272.7860	50.0000	4.0516
272.8857	50.0000	4.0514
272.9864	50.0000	4.0495
273.0857	50.0000	4.0495
273.1864	50.0000	4.0506
273.2858	50.0000	4.0500
273.3858	50.0000	4.0513
273.4860	50.0000	4.0507
273.5859	50.0000	4.0466
273.6860	50.0000	4.0510
273.7870	50.0000	4.0500
273.8864	50.0000	4.0470
273.9867	50.0000	4.0522
274.0866	50.0000	4.0511
274.1868	50.0000	4.0486
274.2868	50.0000	4.0483
274.3868	50.0000	4.0472
274.4866	50.0000	4.0505
274.5868	50.0000	4.0511
274.6866	50.0000	4.0479
274.7866	50.0000	4.0520
274.8867	50.0000	4.0482
274.9877	50.0000	4.0475
275.0892	50.0000	4.0482
275.1888	50.0000	4.0498
275.2898	50.0000	4.0482
275.3900	50.0000	4.0506
275.4912	50.0000	4.0503
275.5910	50.0000	4.0492
275.6914	50.0000	4.0482
275.7917	50.0000	4.0496
275.8919	50.0000	4.0494
275.9916	50.0000	4.0500
276.0920	50.0000	4.0505
276.1920	50.0000	4.0506
276.2920	50.0000	4.0474
276.3928	50.0000	4.0511
276.4936	50.0000	4.0479
276.5942	50.0000	4.0506
276.6944	50.0000	4.0504
276.7938	50.0000	4.0491
276.8944	50.0000	4.0508
276.9944	50.0000	4.0494
277.0944	50.0000	4.0501
277.1944	50.0000	4.0504
277.2944	50.0000	4.0500
277.3942	50.0000	4.0500
277.4944	50.0000	4.0488
277.5944	50.0000	4.0498
277.6964	50.0000	4.0466
277.7960	50.0000	4.0498
277.8968	50.0000	4.0491
277.9965	50.0000	4.0499
278.0965	50.0000	4.0489
278.1968	50.0000	4.0497
278.2966	50.0000	4.0483
278.3967	50.0000	4.0507
278.4965	50.0000	4.0498
278.5967	50.0000	4.0511
278.6968	50.0000	4.0479
278.7977	50.0000	4.0502
278.8980	50.0000	4.0482
278.9977	50.0000	4.0498
279.0994	50.0000	4.0499
279.1990	50.0000	4.0474
279.2993	50.0000	4.0519
279.3994	50.0000	4.0529
279.4994	50.0000	4.0493
279.5993	50.0000	4.0481
279.6996	50.0000	4.0524
279.8005	50.0000	4.0482
279.9023	50.0000	4.0524
280.0016	50.0000	4.0462
280.1020	50.0000	4.0503
280.2020	50.0000	4.0505
280.3020	50.0000	4.0483
280.4024	50.0000	4.0451
280.5023	50.0000	4.0501
280.6018	50.0000	4.0503
280.7020	50.0000	4.0494
280.8019	50.0000	4.0506
280.9016	50.0000	4.0489
281.0021	50.0000	4.0504
281.1022	50.0000	4.0458
281.2025	50.0000	4.0522
281.3025	50.0000	4.0485
281.4036	50.0000	4.0497
281.5044	50.0000	4.0496
281.6044	50.0000	4.0505
281.7044	50.0000	4.0483
281.8044	50.0000	4.0498
281.9044	50.0000	4.0492
282.0038	50.0000	4.0515
282.1044	50.0000	4.0509
282.2045	50.0000	4.0507
282.3050	50.0000	4.0507
282.4046	50.0000	4.0480
282.5064	50.0000	4.0491
282.6070	50.0000	4.0530
282.7068	50.0000	4.0481
282.8068	50.0000	4.0494
282.9068	50.0000	4.0496
283.0069	50.0000	4.0494
283.1068	50.0000	4.0514
283.2069	50.0000	4.0485
283.3069	50.0000	4.0500
283.4067	50.0000	4.0499
283.5069	50.0000	4.0514
283.6086	50.0000	4.0506
283.7089	50.0000	4.0499
283.8095	50.0000	4.0489
283.9095	50.0000	4.0515
284.0097	50.0000	4.0519
284.1100	50.0000	4.0469
284.2097	50.0000	4.0497
284.3115	50.0000	4.0507
284.4116	50.0000	4.0535
284.5117	50.0000	4.0509
284.6121	50.0000	4.0483
284.7120	50.0000	4.0515
284.8120	50.0000	4.0523
284.9121	50.0000	4.0525
285.0120	50.0000	4.0476
285.1121	50.0000	4.0529
285.2121	50.0000	4.0492
285.3122	50.0000	4.0507
285.4123	50.0000	4.0476
285.5125	50.0000	4.0504
285.6123	50.0000	4.0506
285.7125	50.0000	4.0489
285.8126	50.0000	4.0520
285.9130	50.0000	4.0517
286.0137	50.0000	4.0459
286.1142	50.0000	4.0464
286.2145	50.0000	4.0485
286.3145	50.0000	4.0497
286.4145	50.0000	4.0497
286.5138	50.0000	4.0522
286.6145	50.0000	4.0510
286.7140	50.0000	4.0472
286.8141	50.0000	4.0460
286.9145	50.0000	4.0487
287.0165	50.0000	4.0501
287.1167	50.0000	4.0467
287.2167	50.0000	4.0513
287.3165	50.0000	4.0515
287.4169	50.0000	4.0489
287.5169	50.0000	4.0491
287.6178	50.0000	4.0474
287.7182	50.0000	4.0493
287.8178	50.0000	4.0472
287.9175	50.0000	4.0525
288.0186	50.0000	4.0482
288.1203	50.0000	4.0468
288.2201	50.0000	4.0520
288.3202	50.0000	4.0496
288.4205	50.0000	4.0498
288.5208	50.0000	4.0507
288.6208	50.0000	4.0483
288.7210	50.0000	4.0513
288.8213	50.0000	4.0498
288.9215	50.0000	4.0513
289.0206	50.0000	4.0507
289.1215	50.0000	4.0501
289.2211	50.0000	4.0520
289.3210	50.0000	4.0516
289.4224	50.0000	4.0493
289.5220	50.0000	4.0496
289.6218	50.0000	4.0504
289.7225	50.0000	4.0510
289.8223	50.0000	4.0488
289.9221	50.0000	4.0484
290.0219	50.0000	4.0478
290.1226	50.0000	4.0507
290.2238	50.0000	4.0514
290.3239	50.0000	4.0495
290.4245	50.0000	4.0512
290.5240	50.0000	4.0512
290.6245	50.0000	4.0545
290.7244	50.0000	4.0507
290.8239	50.0000	4.0489
290.9239	50.0000	4.0500
291.0245	50.0000	4.0501
291.1245	50.0000	4.0500
291.2245	50.0000	4.0543
291.3243	50.0000	4.0526
291.4245	50.0000	4.0482
291.5245	50.0000	4.0459
291.6245	50.0000	4.0504
291.7245	50.0000	4.0466
291.8245	50.0000	4.0501
291.9245	50.0000	4.0483
292.0238	50.0000	4.0514
292.1245	50.0000	4.0492
292.2244	50.0000	4.0504
292.3245	50.0000	4.0507
292.4240	50.0000	4.0471
292.5240	50.0000	4.0515
292.6241	50.0000	4.0523
292.7244	50.0000	4.0484
292.8245	50.0000	4.0485
292.9245	50.0000	4.0450
293.0245	50.0000	4.0468
293.1245	50.0000	4.0503
293.2245	50.0000	4.0470
293.3245	50.0000	4.0491
293.4244	50.0000	4.0471
293.5241	50.0000	4.0509
293.6245	50.0000	4.0495
293.7243	50.0000	4.0495
293.8245	50.0000	4.0496
293.9245	50.0000	4.0508
294.0244	50.0000	4.0498
294.1245	50.0000	4.0503
294.2245	50.0000	4.0480
294.3241	50.0000	4.0499
294.4245	50.0000	4.0485
294.5245	50.0000	4.0489
294.6241	50.0000	4.0507
294.7245	50.0000	4.0504
294.8253	50.0000	4.0481
294.9250	50.0000	4.0492
295.0249	50.0000	4.0459
295.1265	50.0000	4.0492
295.2259	50.0000	4.0499
295.3261	50.0000	4.0494
295.4269	50.0000	4.0507
295.5268	50.0000	4.0492
295.6266	50.0000	4.0494
295.7270	50.0000	4.0502
295.8268	50.0000	4.0481
295.9269	50.0000	4.0486
296.0269	50.0000	4.0497
296.1269	50.0000	4.0507
296.2269	50.0000	4.0499
296.3267	50.0000	4.0482
296.4269	50.0000	4.0471
296.5269	50.0000	4.0459
296.6266	50.0000	4.0532
296.7270	50.0000	4.0498
296.8266	50.0000	4.0485
296.9267	50.0000	4.0514
297.0267	50.0000	4.0495
297.1267	50.0000	4.0471
297.2268	50.0000	4.0489
297.3269	50.0000	4.0487
297.4270	50.0000	4.0489
297.5270	50.0000	4.0515
297.6270	50.0000	4.0530
297.7268	50.0000	4.0480
297.8268	50.0000	4.0492
297.9268	50.0000	4.0502
298.0282	50.0000	4.0478
298.1283	50.0000	4.0500
298.2292	50.0000	4.0506
298.3301	50.0000	4.0499
298.4299	50.0000	4.0502
298.5298	50.0000	4.0515
298.6299	50.0000	4.0488
298.7302	50.0000	4.0476
298.8302	50.0000	4.0483
298.9304	50.0000	4.0502
299.0307	50.0000	4.0490
299.1315	50.0000	4.0521
299.2312	50.0000	4.0508
299.3313	50.0000	4.0498
299.4316	50.0000	4.0511
299.5317	50.0000	4.0501
299.6319	50.0000	4.0485
299.7321	50.0000	4.0496
299.8322	50.0000	4.0508
299.9325	50.0000	4.0505
300.0318	50.0000	4.0509
300.1317	50.0000	4.0520
300.2325	50.0000	4.0511
300.3324	50.0000	4.0493
300.4323	50.0000	4.0504
300.5322	50.0000	4.0513
300.6322	50.0000	4.0493
300.7322	50.0000	4.0514
300.8324	50.0000	4.0492
300.9322	50.0000	4.0508
301.0322	50.0000	4.0498
301.1322	50.0000	4.0507
301.2317	50.0000	4.0520
301.3321	50.0000	4.0489
301.4322	50.0000	4.0514
301.5325	50.0000	4.0516
301.6317	50.0000	4.0494
301.7319	50.0000	4.0496
301.8319	50.0000	4.0493
301.9322	50.0000	4.0498
302.0322	50.0000	4.0497
302.1319	50.0000	4.0484
302.2320	50.0000	4.0514
302.3321	50.0000	4.0503
302.4322	50.0000	4.0494
302.5320	50.0000	4.0482
302.6317	50.0000	4.0495
302.7319	50.0000	4.0518
302.8318	50.0000	4.0523
302.9327	50.0000	4.0521
303.0346	50.0000	4.0502
303.1346	50.0000	4.0490
303.2346	50.0000	4.0502
303.3346	50.0000	4.0470
303.4338	50.0000	4.0473
303.5346	50.0000	4.0466
303.6346	50.0000	4.0492
303.7344	50.0000	4.0505
303.8356	50.0000	4.0510
303.9348	50.0000	4.0455
304.0355	50.0000	4.0464
304.1354	50.0000	4.0500
304.2348	50.0000	4.0467
304.3356	50.0000	4.0496
304.4358	50.0000	4.0553
304.5358	50.0000	4.0461
304.6358	50.0000	4.0497
304.7366	50.0000	4.0456
304.8375	50.0000	4.0495
304.9369	50.0000	4.0477
305.0369	50.0000	4.0453
305.1370	50.0000	4.0511
305.2369	50.0000	4.0498
305.3386	50.0000	4.0523
305.4378	50.0000	4.0481
305.5381	50.0000	4.0501
305.6378	50.0000	4.0495
305.7377	50.0000	4.0516
305.8377	50.0000	4.0526
305.9382	50.0000	4.0522
306.0390	50.0000	4.0475
306.1394	50.0000	4.0496
306.2396	50.0000	4.0526
306.3398	50.0000	4.0488
306.4398	50.0000	4.0530
306.5403	50.0000	4.0495
306.6406	50.0000	4.0476
306.7403	50.0000	4.0506
306.8397	50.0000	4.0500
306.9409	50.0000	4.0492
307.0413	50.0000	4.0502
307.1416	50.0000	4.0493
307.2420	50.0000	4.0510
307.3422	50.0000	4.0480
307.4421	50.0000	4.0514
307.5427	50.0000	4.0495
307.6428	50.0000	4.0460
307.7428	50.0000	4.0490
307.8435	50.0000	4.0458
307.9437	50.0000	4.0511
308.0446	50.0000	4.0468
308.1447	50.0000	4.0495
308.2468	50.0000	4.0498
308.3469	50.0000	4.0497
308.4471	50.0000	4.0500
308.5470	50.0000	4.0490
308.6470	50.0000	4.0490
308.7471	50.0000	4.0494
308.8467	50.0000	4.0500
308.9469	50.0000	4.0498
309.0469	50.0000	4.0494
309.1468	50.0000	4.0513
309.2470	50.0000	4.0515
309.3471	50.0000	4.0502
309.4470	50.0000	4.0510
309.5480	50.0000	4.0521
309.6483	50.0000	4.0489
309.7487	50.0000	4.0508
309.8488	50.0000	4.0474
309.9493	50.0000	4.0490
310.0494	50.0000	4.0487
310.1497	50.0000	4.0484
310.2498	50.0000	4.0476
310.3500	50.0000	4.0517
310.4502	50.0000	4.0486
310.5503	50.0000	4.0489
310.6504	50.0000	4.0508
310.7505	50.0000	4.0505
310.8506	50.0000	4.0509
310.9506	50.0000	4.0491
311.0508	50.0000	4.0503
311.1513	50.0000	4.0497
311.2519	50.0000	4.0510
311.3526	50.0000	4.0482
311.4526	50.0000	4.0478
311.5527	50.0000	4.0467
311.6528	50.0000	4.0484
311.7532	50.0000	4.0522
311.8533	50.0000	4.0508
311.9532	50.0000	4.0505
312.0546	50.0000	4.0508
312.1547	50.0000	4.0492
312.2543	50.0000	4.0480
312.3539	50.0000	4.0508
312.4542	50.0000	4.0513
312.5545	50.0000	4.0476
312.6547	50.0000	4.0513
312.7543	50.0000	4.0493
312.8547	50.0000	4.0475
312.9547	50.0000	4.0480
313.0547	50.0000	4.0497
313.1547	50.0000	4.0451
313.2542	50.0000	4.0512
313.3544	50.0000	4.0497
313.4546	50.0000	4.0498
313.5547	50.0000	4.0506
313.6547	50.0000	4.0485
313.7547	50.0000	4.0504
313.8547	50.0000	4.0503
313.9547	50.0000	4.0502
314.0547	50.0000	4.0494
314.1547	50.0000	4.0502
314.2547	50.0000	4.0501
314.3543	50.0000	4.0493
314.4547	50.0000	4.0508
314.5547	50.0000	4.0471
314.6547	50.0000	4.0478
314.7546	50.0000	4.0505
314.8547	50.0000	4.0510
314.9547	50.0000	4.0509
315.0547	50.0000	4.0496
315.1547	50.0000	4.0499
315.2548	50.0000	4.0504
315.3554	50.0000	4.0473
315.4567	50.0000	4.0486
315.5566	50.0000	4.0497
315.6575	50.0000	4.0495
315.7571	50.0000	4.0503
315.8571	50.0000	4.0517
315.9586	50.0000	4.0489
316.0579	50.0000	4.0493
316.1581	50.0000	4.0527
316.2597	50.0000	4.0474
316.3598	50.0000	4.0522
316.4610	50.0000	4.0486
316.5613	50.0000	4.0499
316.6613	50.0000	4.0491
316.7613	50.0000	4.0466
316.8616	50.0000	4.0497
316.9618	50.0000	4.0506
317.0622	50.0000	4.0491
317.1623	50.0000	4.0496
317.2623	50.0000	4.0470
317.3622	50.0000	4.0457
317.4623	50.0000	4.0488
317.5624	50.0000	4.0471
317.6623	50.0000	4.0476
317.7624	50.0000	4.0497
317.8624	50.0000	4.0492
317.9624	50.0000	4.0483
318.0626	50.0000	4.0495
318.1619	50.0000	4.0481
318.2620	50.0000	4.0497
318.3621	50.0000	4.0474
318.4625	50.0000	4.0506
318.5626	50.0000	4.0510
318.6628	50.0000	4.0470
318.7629	50.0000	4.0488
318.8632	50.0000	4.0496
318.9635	50.0000	4.0488
319.0637	50.0000	4.0482
319.1628	50.0000	4.0503
319.2636	50.0000	4.0495
319.3629	50.0000	4.0444
319.4632	50.0000	4.0476
319.5638	50.0000	4.0478
319.6633	50.0000	4.0470
319.7633	50.0000	4.0475
319.8633	50.0000	4.0495
319.9640	50.0000	4.0483
320.0647	50.0000	4.0500
320.1646	50.0000	4.0487
320.2646	50.0000	4.0514
320.3648	50.0000	4.0467
320.4647	50.0000	4.0476
320.5648	50.0000	4.0453
320.6648	50.0000	4.0493
320.7648	50.0000	4.0485
320.8654	50.0000	4.0502
320.9669	50.0000	4.0454
321.0672	50.0000	4.0492
321.1672	50.0000	4.0491
321.2687	50.0000	4.0481
321.3685	50.0000	4.0465
321.4683	50.0000	4.0478
321.5695	50.0000	4.0502
321.6693	50.0000	4.0494
321.7699	50.0000	4.0495
321.8710	50.0000	4.0506
321.9721	50.0000	4.0490
322.0721	50.0000	4.0499
322.1729	50.0000	4.0489
322.2736	50.0000	4.0489
322.3732	50.0000	4.0482
322.4737	50.0000	4.0509
322.5733	50.0000	4.0510
322.6732	50.0000	4.0487
322.7733	50.0000	4.0502
322.8733	50.0000	4.0483
322.9730	50.0000	4.0502
323.0728	50.0000	4.0499
323.1732	50.0000	4.0488
323.2732	50.0000	4.0504
323.3731	50.0000	4.0487
323.4732	50.0000	4.0488
323.5729	50.0000	4.0459
323.6730	50.0000	4.0493
323.7730	50.0000	4.0501
323.8729	50.0000	4.0475
323.9729	50.0000	4.0470
324.0730	50.0000	4.0489
324.1729	50.0000	4.0447
324.2730	50.0000	4.0501
324.3730	50.0000	4.0515
324.4729	50.0000	4.0456
324.5740	50.0000	4.0462
324.6748	50.0000	4.0483
324.7749	50.0000	4.0474
324.8769	50.0000	4.0482
324.9777	50.0000	4.0477
325.0772	50.0000	4.0503
325.1772	50.0000	4.0467
325.2771	50.0000	4.0506
325.3772	50.0000	4.0468
325.4772	50.0000	4.0466
325.5772	50.0000	4.0484
325.6773	50.0000	4.0470
325.7771	50.0000	4.0479
325.8770	50.0000	4.0470
325.9772	50.0000	4.0477
326.0772	50.0000	4.0470
326.1772	50.0000	4.0505
326.2771	50.0000	4.0497
326.3781	50.0000	4.0514
326.4784	50.0000	4.0487
326.5788	50.0000	4.0480
326.6783	50.0000	4.0495
326.7795	50.0000	4.0463
326.8806	50.0000	4.0491
326.9804	50.0000	4.0455
327.0805	50.0000	4.0502
327.1805	50.0000	4.0484
327.2808	50.0000	4.0469
327.3808	50.0000	4.0488
327.4811	50.0000	4.0485
327.5819	50.0000	4.0459
327.6822	50.0000	4.0493
327.7822	50.0000	4.0485
327.8824	50.0000	4.0477
327.9824	50.0000	4.0462
328.0823	50.0000	4.0493
328.1821	50.0000	4.0480
328.2826	50.0000	4.0476
328.3822	50.0000	4.0470
328.4819	50.0000	4.0472
328.5826	50.0000	4.0475
328.6824	50.0000	4.0434
328.7821	50.0000	4.0482
328.8838	50.0000	4.0489
328.9836	50.0000	4.0477
329.0833	50.0000	4.0504
329.1843	50.0000	4.0472
329.2848	50.0000	4.0488
329.3848	50.0000	4.0503
329.4843	50.0000	4.0491
329.5849	50.0000	4.0480
329.6849	50.0000	4.0491
329.7848	50.0000	4.0475
329.8848	50.0000	4.0479
329.9848	50.0000	4.0459
330.0844	50.0000	4.0490
330.1848	50.0000	4.0474
330.2848	50.0000	4.0499
330.3849	50.0000	4.0471
330.4849	50.0000	4.0465
330.5869	50.0000	4.0485
330.6867	50.0000	4.0473
330.7860	50.0000	4.0495
330.8870	50.0000	4.0471
330.9873	50.0000	4.0479
331.0873	50.0000	4.0475
331.1871	50.0000	4.0488
331.2872	50.0000	4.0475
331.3882	50.0000	4.0468
331.4887	50.0000	4.0489
331.5893	50.0000	4.0483
331.6894	50.0000	4.0501
331.7892	50.0000	4.0449
331.8907	50.0000	4.0515
331.9918	50.0000	4.0483
332.0926	50.0000	4.0494
332.1927	50.0000	4.0469
332.2926	50.0000	4.0470
332.3928	50.0000	4.0479
332.4936	50.0000	4.0481
332.5938	50.0000	4.0500
332.6933	50.0000	4.0466
332.7934	50.0000	4.0483
332.8939	50.0000	4.0475
332.9953	50.0000	4.0499
333.0951	50.0000	4.0467
333.1958	50.0000	4.0498
333.2951	50.0000	4.0488
333.3954	50.0000	4.0472
333.4951	50.0000	4.0473
333.5969	50.0000	4.0494
333.6974	50.0000	4.0457
333.7970	50.0000	4.0483
333.8971	50.0000	4.0478
333.9971	50.0000	4.0480
334.0976	50.0000	4.0478
334.1973	50.0000	4.0473
334.2981	50.0000	4.0483
334.3990	50.0000	4.0446
334.5000	50.0000	4.0478
334.6003	50.0000	4.0471
334.7000	50.0000	4.0468
334.8011	50.0000	4.0486
334.9018	50.0000	4.0479
335.0013	50.0000	4.0481
335.1016	50.0000	4.0478
335.2019	50.0000	4.0530
335.3010	50.0000	4.0479
335.4011	50.0000	4.0496
335.5015	50.0000	4.0465
335.6016	50.0000	4.0488
335.7018	50.0000	4.0499
335.8022	50.0000	4.0501
335.9029	50.0000	4.0486
336.0021	50.0000	4.0507
336.1021	50.0000	4.0491
336.2026	50.0000	4.0492
336.3028	50.0000	4.0481
336.4019	50.0000	4.0464
336.5021	50.0000	4.0473
336.6026	50.0000	4.0477
336.7023	50.0000	4.0485
336.8022	50.0000	4.0489
336.9023	50.0000	4.0478
337.0021	50.0000	4.0466
337.1022	50.0000	4.0461
337.2032	50.0000	4.0506
337.3030	50.0000	4.0452
337.4043	50.0000	4.0494
337.5048	50.0000	4.0484
337.6049	50.0000	4.0486
337.7049	50.0000	4.0509
337.8049	50.0000	4.0477
337.9048	50.0000	4.0483
338.0049	50.0000	4.0497
338.1049	50.0000	4.0472
338.2044	50.0000	4.0496
338.3044	50.0000	4.0496
338.4048	50.0000	4.0483
338.5048	50.0000	4.0481
338.6049	50.0000	4.0460
338.7049	50.0000	4.0476
338.8049	50.0000	4.0474
338.9049	50.0000	4.0476
339.0049	50.0000	4.0478
339.1049	50.0000	4.0466
339.2049	50.0000	4.0449
339.3049	50.0000	4.0486
339.4044	50.0000	4.0483
339.5042	50.0000	4.0491
339.6046	50.0000	4.0490
339.7049	50.0000	4.0479
339.8049	50.0000	4.0484
339.9049	50.0000	4.0451
340.0049	50.0000	4.0469
340.1049	50.0000	4.0459
340.2049	50.0000	4.0466
340.3049	50.0000	4.0463
340.4046	50.0000	4.0487
340.5048	50.0000	4.0484
340.6048	50.0000	4.0492
340.7049	50.0000	4.0479
340.8045	50.0000	4.0472
340.9049	50.0000	4.0476
341.0049	50.0000	4.0481
341.1049	50.0000	4.0491
341.2047	50.0000	4.0480
341.3045	50.0000	4.0502
341.4041	50.0000	4.0461
341.5043	50.0000	4.0476
341.6049	50.0000	4.0480
341.7049	50.0000	4.0461
341.8049	50.0000	4.0495
341.9049	50.0000	4.0436
342.0049	50.0000	4.0496
342.1048	50.0000	4.0469
342.2044	50.0000	4.0511
342.3049	50.0000	4.0469
342.4045	50.0000	4.0490
342.5044	50.0000	4.0476
342.6048	50.0000	4.0458
342.7046	50.0000	4.0491
342.8048	50.0000	4.0458
342.9049	50.0000	4.0496
343.0050	50.0000	4.0482
343.1050	50.0000	4.0488
343.2049	50.0000	4.0447
343.3050	50.0000	4.0471
343.4044	50.0000	4.0497
343.5044	50.0000	4.0485
343.6049	50.0000	4.0484
343.7049	50.0000	4.0479
343.8049	50.0000	4.0474
343.9050	50.0000	4.0502
344.0047	50.0000	4.0958
344.1049	50.0000	4.0742
344.2050	50.0000	4.2477
344.3050	50.0000	4.8626
344.4045	50.0000	4.7312
344.5049	50.0000	5.1315
344.6050	50.0000	4.9051
344.7050	50.0000	4.7400
344.8049	50.0000	4.5876
344.9050	50.0000	4.6488
345.0050	50.0000	4.8344
345.1042	50.0000	5.2142
345.2050	50.0000	5.5208
345.3050	50.0000	4.8922
345.4051	50.0000	3.7481
345.5070	50.0000	3.1921
345.6067	50.0000	2.7427
345.7064	50.0000	2.6183
345.8065	50.0000	2.6105
345.9065	50.0000	2.6006
346.0066	50.0000	2.6033
346.1065	50.0000	2.6789
346.2064	50.0000	2.6668
346.3076	50.0000	2.3709
346.4074	50.0000	2.5077
346.5074	50.0000	2.9378
346.6073	50.0000	2.6331
346.7073	50.0000	2.6404
346.8074	50.0000	2.6175
346.9073	50.0000	2.6071
347.0074	50.0000	2.5996
347.1080	50.0000	2.6097
347.2074	50.0000	2.6223
347.3074	50.0000	2.6233
347.4077	50.0000	2.6201
347.5074	50.0000	2.6208
347.6073	50.0000	2.6143
347.7083	50.0000	2.6111
347.8099	50.0000	2.6116
347.9094	50.0000	2.6167
348.0095	50.0000	2.6227
348.1090	50.0000	2.6198
348.2098	50.0000	2.6180
348.3092	50.0000	2.6160
348.4096	50.0000	2.6137
348.5092	50.0000	2.6180
348.6097	50.0000	2.6174
348.7108	50.0000	2.6167
348.8118	50.0000	2.6138
348.9119	50.0000	2.6138
349.0130	50.0000	2.6175
349.1126	50.0000	2.6180
349.2121	50.0000	2.6168
349.3129	50.0000	2.6141
349.4126	50.0000	2.6175
349.5134	50.0000	2.6193
349.6138	50.0000	2.6172
349.7139	50.0000	2.6159
349.8136	50.0000	2.6139
349.9133	50.0000	2.6180
350.0134	50.0000	2.6161
350.1131	50.0000	2.6185
350.2142	50.0000	2.6177
350.3156	50.0000	2.6157
350.4171	50.0000	2.6176
350.5174	50.0000	2.6165
350.6174	50.0000	2.6159
350.7173	50.0000	2.6165
350.8181	50.0000	2.6155
350.9193	50.0000	2.6149
351.0203	50.0000	2.6170
351.1212	50.0000	2.6148
351.2217	50.0000	2.6166
351.3214	50.0000	2.6176
351.4215	50.0000	2.6171
351.5219	50.0000	2.6164
351.6220	50.0000	2.6147
351.7220	50.0000	2.6158
351.8218	50.0000	2.6167
351.9217	50.0000	2.6176
352.0217	50.0000	2.6177
352.1216	50.0000	2.6155
352.2218	50.0000	2.6148
352.3222	50.0000	2.6154
352.4222	50.0000	2.6133
352.5229	50.0000	2.6175
352.6229	50.0000	2.6160
352.7228	50.0000	2.6162
352.8230	50.0000	2.6149
352.9231	50.0000	2.6173
353.0237	50.0000	2.6165
353.1238	50.0000	2.6171
353.2235	50.0000	2.6194
353.3233	50.0000	2.6196
353.4231	50.0000	2.6195
353.5239	50.0000	2.6204
353.6240	50.0000	2.6172
353.7240	50.0000	2.6167
353.8239	50.0000	2.6171
353.9239	50.0000	2.6180
354.0238	50.0000	2.6178
354.1236	50.0000	2.6174
354.2235	50.0000	2.6156
354.3249	50.0000	2.6180
354.4245	50.0000	2.6180
354.5250	50.0000	2.6612
354.6247	50.0000	2.9759
354.7250	50.0000	2.6236
354.8251	50.0000	2.6195
354.9249	50.0000	2.6230
355.0250	50.0000	2.8680
355.1249	50.0000	2.6184
355.2250	50.0000	2.6206
355.3251	50.0000	2.6185
355.4257	50.0000	2.6154
355.5252	50.0000	2.6305
355.6261	50.0000	3.0115
355.7262	50.0000	3.1363
355.8265	50.0000	3.5663
355.9272	50.0000	4.0094
356.0273	50.0000	4.1582
356.1274	50.0000	4.1783
356.2274	50.0000	4.2732
356.3280	50.0000	4.3018
356.4275	50.0000	4.3550
356.5274	50.0000	4.4317
356.6283	50.0000	4.4225
356.7286	50.0000	4.4383
356.8288	50.0000	4.4254
356.9284	50.0000	4.4524
357.0282	50.0000	4.5024
357.1288	50.0000	4.5081
357.2295	50.0000	4.5041
357.3295	50.0000	4.5079
357.4295	50.0000	4.5098
357.5300	50.0000	4.5029
357.6301	50.0000	4.4984
357.7292	50.0000	4.4962
357.8294	50.0000	4.5052
357.9294	50.0000	4.5048
358.0297	50.0000	4.5117
358.1300	50.0000	4.5052
358.2300	50.0000	4.5024
358.3297	50.0000	4.5004
358.4294	50.0000	4.5018
358.5311	50.0000	4.5046
358.6308	50.0000	4.5071
358.7307	50.0000	4.5055
358.8317	50.0000	4.5018
358.9329	50.0000	4.5064
359.0322	50.0000	4.5044
359.1328	50.0000	4.5056
359.2323	50.0000	4.5025
359.3341	50.0000	4.5031
359.4338	50.0000	4.5052
359.5348	50.0000	4.5036
359.6361	50.0000	4.5098
359.7367	50.0000	4.5032
359.8365	50.0000	4.5043
359.9362	50.0000	4.5032
360.0370	50.0000	4.5041
360.1365	50.0000	4.5014
360.2365	50.0000	4.5064
360.3379	50.0000	4.5034
360.4376	50.0000	4.5069
360.5372	50.0000	4.5010
360.6375	50.0000	4.5102
360.7375	50.0000	4.5026
360.8389	50.0000	4.5013
360.9395	50.0000	4.5054
361.0398	50.0000	4.5019
361.1400	50.0000	4.5079
361.2394	50.0000	4.5067
361.3398	50.0000	4.5040
361.4395	50.0000	4.5042
361.5411	50.0000	4.5034
361.6410	50.0000	4.5038
361.7404	50.0000	4.5013
361.8412	50.0000	4.5096
361.9424	50.0000	4.5009
362.0426	50.0000	4.5048
362.1427	50.0000	4.5053
362.2428	50.0000	4.5085
362.3427	50.0000	4.5062
362.4426	50.0000	4.5046
362.5433	50.0000	4.5060
362.6437	50.0000	4.5105
362.7433	50.0000	4.5043
362.8433	50.0000	4.5062
362.9432	50.0000	4.5064
363.0442	50.0000	4.5030
363.1446	50.0000	4.5083
363.2451	50.0000	4.5050
363.3449	50.0000	4.5031
363.4451	50.0000	4.5060
363.5451	50.0000	4.5023
363.6451	50.0000	4.5053
363.7446	50.0000	4.5010
363.8450	50.0000	4.5070
363.9447	50.0000	4.5052
364.0445	50.0000	4.5010
364.1443	50.0000	4.5022
364.2445	50.0000	4.5025
364.3443	50.0000	4.5045
364.4450	50.0000	4.5057
364.5450	50.0000	4.5019
364.6449	50.0000	4.5040
364.7450	50.0000	4.5043
364.8450	50.0000	4.5042
364.9450	50.0000	4.5045
365.0451	50.0000	4.5085
365.1451	50.0000	4.5038
365.2446	50.0000	4.5076
365.3443	50.0000	4.5016
365.4448	50.0000	4.5046
365.5451	50.0000	4.5060
365.6449	50.0000	4.5022
365.7453	50.0000	4.5061
365.8459	50.0000	4.5000
365.9461	50.0000	4.5039
366.0462	50.0000	4.5047
366.1468	50.0000	4.5062
366.2466	50.0000	4.5050
366.3467	50.0000	4.5021
366.4470	50.0000	4.5072
366.5472	50.0000	4.5072
366.6475	50.0000	4.5053
366.7474	50.0000	4.5025
366.8484	50.0000	4.5053
366.9493	50.0000	4.5060
367.0495	50.0000	4.5074
367.1495	50.0000	4.5071
367.2506	50.0000	4.5067
367.3504	50.0000	4.5042
367.4508	50.0000	4.5055
367.5505	50.0000	4.5034
367.6509	50.0000	4.5044
367.7512	50.0000	4.5061
367.8518	50.0000	4.5061
367.9522	50.0000	4.5088
368.0522	50.0000	4.5057
368.1524	50.0000	4.5065
368.2526	50.0000	4.5035
368.3524	50.0000	4.5056
368.4524	50.0000	4.5059
368.5528	50.0000	4.5040
368.6531	50.0000	4.5069
368.7532	50.0000	4.5036
368.8533	50.0000	4.5130
368.9536	50.0000	4.5033
369.0548	50.0000	4.5040
369.1542	50.0000	4.5023
369.2549	50.0000	4.5042
369.3550	50.0000	4.4994
369.4548	50.0000	4.5060
369.5552	50.0000	4.5061
369.6552	50.0000	4.5033
369.7548	50.0000	4.5066
369.8552	50.0000	4.5040
369.9551	50.0000	4.5026
370.0547	50.0000	4.5054
370.1552	50.0000	4.5064
370.2545	50.0000	4.5073
370.3551	50.0000	4.5051
370.4552	50.0000	4.5065
370.5552	50.0000	4.5045
370.6552	50.0000	4.5084
370.7552	50.0000	4.5022
370.8552	50.0000	4.5046
370.9552	50.0000	4.5075
371.0552	50.0000	4.5050
371.1552	50.0000	4.5049
371.2552	50.0000	4.5018
371.3573	50.0000	4.5079
371.4574	50.0000	4.5049
371.5575	50.0000	4.5074
371.6575	50.0000	4.5035
371.7575	50.0000	4.5062
371.8575	50.0000	4.5034
371.9581	50.0000	4.5043
372.0576	50.0000	4.5069
372.1573	50.0000	4.5044
372.2576	50.0000	4.5039
372.3576	50.0000	4.5040
372.4573	50.0000	4.4983
372.5575	50.0000	4.5007
372.6576	50.0000	4.5011
372.7576	50.0000	4.5037
372.8585	50.0000	4.5036
372.9585	50.0000	4.4996
373.0589	50.0000	4.4993
373.1586	50.0000	4.5076
373.2592	50.0000	4.5059
373.3588	50.0000	4.5049
373.4591	50.0000	4.5051
373.5595	50.0000	4.5087
373.6594	50.0000	4.5027
373.7594	50.0000	4.5032
373.8596	50.0000	4.5046
373.9598	50.0000	4.5052
374.0602	50.0000	4.5058
374.1601	50.0000	4.5050
374.2598	50.0000	4.5031
374.3598	50.0000	4.5015
374.4599	50.0000	4.5024
374.5594	50.0000	4.5087
374.6599	50.0000	4.5060
374.7598	50.0000	4.5057
374.8605	50.0000	4.5047
374.9615	50.0000	4.5060
375.0615	50.0000	4.5024
375.1625	50.0000	4.5065
375.2624	50.0000	4.5049
375.3624	50.0000	4.5037
375.4633	50.0000	4.5037
375.5645	50.0000	4.5045
375.6647	50.0000	4.5049
375.7652	50.0000	4.5032
375.8652	50.0000	4.5032
375.9647	50.0000	4.5037
376.0652	50.0000	4.5041
376.1649	50.0000	4.5017
376.2653	50.0000	4.5015
376.3652	50.0000	4.5028
376.4652	50.0000	4.5052
376.5653	50.0000	4.5042
376.6650	50.0000	4.5054
376.7653	50.0000	4.5018
376.8650	50.0000	4.5036
376.9652	50.0000	4.5038
377.0652	50.0000	4.5055
377.1652	50.0000	4.5045
377.2653	50.0000	4.5029
377.3653	50.0000	4.5049
377.4673	50.0000	4.4987
377.5676	50.0000	4.5023
377.6694	50.0000	4.5035
377.7704	50.0000	4.5042
377.8709	50.0000	4.5029
377.9712	50.0000	4.5061
378.0715	50.0000	4.4992
378.1718	50.0000	4.4996
378.2717	50.0000	4.5021
378.3716	50.0000	4.5045
378.4716	50.0000	4.5052
378.5718	50.0000	4.5093
378.6717	50.0000	4.5076
378.7717	50.0000	4.5040
378.8719	50.0000	4.5033
378.9719	50.0000	4.5026
379.0719	50.0000	4.5053
379.1724	50.0000	4.5086
379.2733	50.0000	4.4986
379.3733	50.0000	4.5059
379.4733	50.0000	4.5057
379.5736	50.0000	4.5023
379.6737	50.0000	4.5033
379.7734	50.0000	4.5035
379.8737	50.0000	4.5029
379.9737	50.0000	4.5032
380.0741	50.0000	4.5041
380.1735	50.0000	4.5024
380.2736	50.0000	4.5045
380.3743	50.0000	4.5043
380.4752	50.0000	4.5058
380.5753	50.0000	4.5020
380.6752	50.0000	4.5058
380.7750	50.0000	4.5015
380.8753	50.0000	4.5017
380.9753	50.0000	4.5058
381.0753	50.0000	4.5019
381.1750	50.0000	4.5021
381.2749	50.0000	4.5038
381.3753	50.0000	4.5081
381.4750	50.0000	4.5046
381.5749	50.0000	4.5053
381.6753	50.0000	4.5020
381.7753	50.0000	4.5042
381.8753	50.0000	4.5043
381.9744	50.0000	4.5081
382.0751	50.0000	4.5020
382.1753	50.0000	4.5055
382.2750	50.0000	4.5025
382.3753	50.0000	4.5092
382.4744	50.0000	4.5026
382.5753	50.0000	4.5033
382.6749	50.0000	4.5042
382.7752	50.0000	4.5057
382.8749	50.0000	4.5050
382.9754	50.0000	4.5038
383.0763	50.0000	4.5023
383.1755	50.0000	4.5050
383.2774	50.0000	4.5055
383.3784	50.0000	4.5042
383.4786	50.0000	4.5044
383.5793	50.0000	4.5062
383.6792	50.0000	4.5066
383.7792	50.0000	4.5013
383.8793	50.0000	4.5038
383.9784	50.0000	4.5020
384.0787	50.0000	4.5066
384.1787	50.0000	4.5058
384.2787	50.0000	4.5065
384.3789	50.0000	4.5070
384.4784	50.0000	4.5041
384.5784	50.0000	4.5039
384.6784	50.0000	4.5062
384.7785	50.0000	4.5053
384.8799	50.0000	4.5009
384.9808	50.0000	4.5035
385.0813	50.0000	4.5036
385.1807	50.0000	4.5032
385.2808	50.0000	4.5013
385.3805	50.0000	4.5037
385.4809	50.0000	4.5052
385.5812	50.0000	4.5034
385.6807	50.0000	4.5001
385.7810	50.0000	4.5028
385.8809	50.0000	4.5015
385.9812	50.0000	4.5042
386.0804	50.0000	4.5038
386.1806	50.0000	4.5033
386.2809	50.0000	4.5024
386.3814	50.0000	4.5042
386.4809	50.0000	4.5014
386.5811	50.0000	4.5028
386.6805	50.0000	4.5040
386.7808	50.0000	4.5045
386.8822	50.0000	4.5067
386.9824	50.0000	4.5048
387.0816	50.0000	4.5019
387.1824	50.0000	4.5066
387.2815	50.0000	4.5063
387.3824	50.0000	4.5052
387.4829	50.0000	4.5032
387.5830	50.0000	4.5043
387.6829	50.0000	4.5037
387.7830	50.0000	4.5041
387.8826	50.0000	4.5097
387.9829	50.0000	4.5078
388.0830	50.0000	4.5056
388.1829	50.0000	4.5071
388.2830	50.0000	4.5058
388.3831	50.0000	4.5080
388.4833	50.0000	4.5057
388.5835	50.0000	4.5044
388.6834	50.0000	4.5024
388.7834	50.0000	4.5005
388.8845	50.0000	4.5024
388.9853	50.0000	4.5043
389.0853	50.0000	4.5024
389.1854	50.0000	4.5076
389.2862	50.0000	4.4978
389.3860	50.0000	4.5105
389.4857	50.0000	4.5051
389.5855	50.0000	4.5061
389.6862	50.0000	4.5024
389.7860	50.0000	4.5062
389.8857	50.0000	4.5012
389.9854	50.0000	4.5070
390.0862	50.0000	4.5083
390.1859	50.0000	4.5060
390.2856	50.0000	4.5072
390.3871	50.0000	4.5043
390.4876	50.0000	4.5079
390.5876	50.0000	4.4896
390.6884	50.0000	4.4471
390.7876	50.0000	4.1041
390.8877	50.0000	3.5415
390.9878	50.0000	2.9088
391.0878	50.0000	2.6078
391.1878	50.0000	2.6106
391.2878	50.0000	2.6224
391.3877	50.0000	2.6221
391.4878	50.0000	2.6222
391.5885	50.0000	2.6212
391.6888	50.0000	2.6125
391.7894	50.0000	2.6089
391.8896	50.0000	2.6154
391.9895	50.0000	2.6212
392.0895	50.0000	2.6201
392.1906	50.0000	2.5762
392.2917	50.0000	2.4609
392.3925	50.0000	2.4887
392.4928	50.0000	2.6135
392.5930	50.0000	2.6122
392.6931	50.0000	2.6192
392.7930	50.0000	2.6228
392.8932	50.0000	2.6176
392.9934	50.0000	2.6183
393.0932	50.0000	2.6116
393.1943	50.0000	2.6185
393.2941	50.0000	2.6117
393.3945	50.0000	2.6164
393.4947	50.0000	2.6108
393.5954	50.0000	2.6159
393.6946	50.0000	2.6185
393.7954	50.0000	2.6158
393.8949	50.0000	2.6185
393.9949	50.0000	2.6151
394.0954	50.0000	2.6157
394.1954	50.0000	2.6152
394.2954	50.0000	2.6180
394.3954	50.0000	2.6181
394.4948	50.0000	2.6166
394.5953	50.0000	2.6172
394.6951	50.0000	2.6169
394.7954	50.0000	2.6170
394.8949	50.0000	2.6141
394.9950	50.0000	2.6169
395.0954	50.0000	2.6162
395.1954	50.0000	2.6148
395.2954	50.0000	2.6157
395.3948	50.0000	2.6153
395.4963	50.0000	2.6154
395.5972	50.0000	2.6167
395.6969	50.0000	2.6103
395.7969	50.0000	2.6139
395.8976	50.0000	2.6154
395.9978	50.0000	2.6155
396.0976	50.0000	2.6152
396.1978	50.0000	2.6167
396.2977	50.0000	2.6154
396.3979	50.0000	2.6166
396.4978	50.0000	2.6144
396.5977	50.0000	2.6175
396.6978	50.0000	2.6137
396.7977	50.0000	2.6168
396.8978	50.0000	2.6159
396.9978	50.0000	2.6169
397.0978	50.0000	2.6169
397.1978	50.0000	2.6140
397.2978	50.0000	2.6175
397.3979	50.0000	2.6154
397.4977	50.0000	2.6183
397.5979	50.0000	2.6164
397.6979	50.0000	2.6186
397.7980	50.0000	2.6171
397.8985	50.0000	2.6191
397.9987	50.0000	2.6165
398.0989	50.0000	2.6119
398.1997	50.0000	2.6145
398.3000	50.0000	2.6155
398.4004	50.0000	2.6218
398.5004	50.0000	2.6150
398.6007	50.0000	2.6164
398.7013	50.0000	2.6132
398.8012	50.0000	2.6174
398.9017	50.0000	2.6166
399.0021	50.0000	2.6179
399.1022	50.0000	2.6069
399.2018	50.0000	2.6141
399.3016	50.0000	2.6172
399.4018	50.0000	2.6155
399.5021	50.0000	2.6165
399.6026	50.0000	2.6128
399.7030	50.0000	2.6129
399.8027	50.0000	2.6154
399.9028	50.0000	2.6166
400.0031	50.0000	2.6164
400.1031	50.0000	2.6167
400.2033	50.0000	2.6185
400.3032	50.0000	2.6180
400.4031	50.0000	2.6161
400.5031	50.0000	2.6180
400.6034	50.0000	2.6163
400.7034	50.0000	2.6158
400.8025	50.0000	2.6162
400.9033	50.0000	2.6192
401.0044	50.0000	2.6160
401.1038	50.0000	2.6148
401.2047	50.0000	2.6165
401.3055	50.0000	2.6151
401.4054	50.0000	2.6164
401.5054	50.0000	2.6166
401.6055	50.0000	2.6172
401.7055	50.0000	2.6146
401.8054	50.0000	2.6180
401.9055	50.0000	2.6148
402.0054	50.0000	2.6166
402.1053	50.0000	2.6138
402.2055	50.0000	2.6188
402.3055	50.0000	2.6158
402.4055	50.0000	2.6178
402.5053	50.0000	2.6149
402.6051	50.0000	2.6168
402.7055	50.0000	2.6120
402.8053	50.0000	2.6179
402.9055	50.0000	2.6200
403.0054	50.0000	2.6121
403.1055	50.0000	2.6184
403.2055	50.0000	2.5802
403.3053	50.0000	2.5854
403.4053	50.0000	2.4220
403.5054	50.0000	2.4813
403.6055	50.0000	2.6171
403.7055	50.0000	2.5890
403.8052	50.0000	2.5892
403.9055	50.0000	2.7136
404.0054	50.0000	2.6234
404.1055	50.0000	2.4938
404.2050	50.0000	2.5901
404.3055	50.0000	2.7526
404.4055	50.0000	2.5374
404.5055	50.0000	2.5986
404.6056	50.0000	2.6735
404.7076	50.0000	2.4731
404.8078	50.0000	2.5170
404.9078	50.0000	2.5457
405.0079	50.0000	2.6052
405.1077	50.0000	2.5691
405.2079	50.0000	2.5727
405.3078	50.0000	2.6214
405.4079	50.0000	2.6359
405.5080	50.0000	2.6068
405.6078	50.0000	2.6549
405.7079	50.0000	2.5537
405.8078	50.0000	2.5700
405.9079	50.0000	2.6251
406.0079	50.0000	2.6322
406.1080	50.0000	2.5994
406.2077	50.0000	2.6240
406.3090	50.0000	2.5307
406.4086	50.0000	2.3649
406.5091	50.0000	2.4957
406.6096	50.0000	2.5557
406.7107	50.0000	2.6007
406.8108	50.0000	2.6832
406.9114	50.0000	2.6918
407.0111	50.0000	2.6234
407.1112	50.0000	2.6837
407.2114	50.0000	2.7098
407.3114	50.0000	2.6366
407.4114	50.0000	2.6154
407.5115	50.0000	2.6181
407.6123	50.0000	2.6295
407.7121	50.0000	2.6423
407.8122	50.0000	2.6200
407.9127	50.0000	2.6196
408.0128	50.0000	2.6103
408.1127	50.0000	2.6087
408.2132	50.0000	2.5956
408.3132	50.0000	2.5974
408.4132	50.0000	2.6090
408.5130	50.0000	2.6195
408.6128	50.0000	2.6004
408.7128	50.0000	2.6076
408.8133	50.0000	2.6244
408.9131	50.0000	2.7097
409.0131	50.0000	2.7233
409.1129	50.0000	2.8441
409.2137	50.0000	2.7634
409.3144	50.0000	2.5673
409.4155	50.0000	2.5661
409.5155	50.0000	2.5727
409.6155	50.0000	2.5846
409.7155	50.0000	2.6056
409.8152	50.0000	2.5782
409.9155	50.0000	2.5875
410.0155	50.0000	2.5708
410.1155	50.0000	2.5846
410.2156	50.0000	2.6913
410.3154	50.0000	2.9074
410.4155	50.0000	3.0633
410.5155	50.0000	2.7392
410.6149	50.0000	2.5664
410.7155	50.0000	2.5549
410.8148	50.0000	2.5428
410.9156	50.0000	2.5623
411.0165	50.0000	2.5938
411.1157	50.0000	2.6299
411.2157	50.0000	2.6517
411.3172	50.0000	2.6636
411.4167	50.0000	2.6705
411.5166	50.0000	2.5813
411.6169	50.0000	2.5032
411.7184	50.0000	2.5379
411.8180	50.0000	2.5606
411.9177	50.0000	2.6059
412.0179	50.0000	2.5866
412.1177	50.0000	2.6382
412.2197	50.0000	2.7697
412.3203	50.0000	2.6217
412.4207	50.0000	2.5950
412.5216	50.0000	2.6486
412.6207	50.0000	2.6147
412.7212	50.0000	2.5771
412.8207	50.0000	2.5472
412.9211	50.0000	2.5999
413.0213	50.0000	2.6389
413.1218	50.0000	2.6639
413.2221	50.0000	2.4532
413.3220	50.0000	2.4754
413.4222	50.0000	2.5074
413.5224	50.0000	2.5861
413.6225	50.0000	2.6497
413.7227	50.0000	2.6288
413.8237	50.0000	2.6388
413.9247	50.0000	2.6155
414.0256	50.0000	2.6166
414.1256	50.0000	2.6279
414.2256	50.0000	2.7285
414.3256	50.0000	2.9346
414.4256	50.0000	2.9129
414.5256	50.0000	2.8161
414.6256	50.0000	2.7694
414.7252	50.0000	2.8087
414.8256	50.0000	2.7103
414.9256	50.0000	2.6501
415.0256	50.0000	2.6687
415.1256	50.0000	2.5906
415.2251	50.0000	2.6260
415.3256	50.0000	2.6546
415.4252	50.0000	2.6509
415.5256	50.0000	2.5164
415.6255	50.0000	1.9169
415.7256	50.0000	2.2338
415.8256	50.0000	1.4314
415.9251	50.0000	1.6721
416.0256	50.0000	1.6176
416.1256	50.0000	1.6642
416.2276	50.0000	1.5851
416.3274	50.0000	1.8347
416.4273	50.0000	1.9647
416.5272	50.0000	2.1428
416.6269	50.0000	2.3736
416.7268	50.0000	2.6807
416.8279	50.0000	2.3833
416.9281	50.0000	2.5099
417.0281	50.0000	2.1254
417.1277	50.0000	2.2811
417.2280	50.0000	2.2514
417.3280	50.0000	2.1177
417.4280	50.0000	1.9193
417.5280	50.0000	2.0949
417.6280	50.0000	1.9340
417.7280	50.0000	2.1639
417.8280	50.0000	2.0082
417.9280	50.0000	2.4829
418.0280	50.0000	2.2244
418.1280	50.0000	1.6243
418.2280	50.0000	1.5062
418.3280	50.0000	1.5967
418.4281	50.0000	1.5398
418.5279	50.0000	1.8673
418.6280	50.0000	1.6959
418.7279	50.0000	2.5181
418.8279	50.0000	2.1375
418.9280	50.0000	2.1869
419.0280	50.0000	1.9872
419.1280	50.0000	2.0862
419.2278	50.0000	1.9194
419.3280	50.0000	2.0254
419.4280	50.0000	2.0287
419.5280	50.0000	2.4005
419.6280	50.0000	2.0304
419.7277	50.0000	1.9595
419.8280	50.0000	2.3096
419.9279	50.0000	1.9254
420.0281	50.0000	2.0449
420.1281	50.0000	1.9115
420.2281	50.0000	1.7895
420.3277	50.0000	1.7881
420.4277	50.0000	1.7429
420.5281	50.0000	2.0227
420.6280	50.0000	1.9209
420.7280	50.0000	1.8989
420.8287	50.0000	1.5872
420.9288	50.0000	1.3482
421.0299	50.0000	1.1947
421.1299	50.0000	1.0353
421.2307	50.0000	0.7855
421.3305	50.0000	0.0496
421.4307	50.0000	0.2560
421.5312	50.0000	0.0694
421.6317	50.0000	0.1486
421.7308	50.0000	0.4408
421.8312	50.0000	0.5418
421.9310	50.0000	0.7055
422.0321	50.0000	0.9284
422.1318	50.0000	0.9539
422.2318	50.0000	1.1578
422.3322	50.0000	1.3958
422.4330	50.0000	1.0983
422.5333	50.0000	0.8465
422.6333	50.0000	0.7899
422.7333	50.0000	0.7849
422.8335	50.0000	0.6777
422.9328	50.0000	0.9812
423.0329	50.0000	1.1782
423.1336	50.0000	1.0180
423.2333	50.0000	1.0579
423.3332	50.0000	1.3082
423.4338	50.0000	1.0289
423.5349	50.0000	1.0362
423.6352	50.0000	1.0550
423.7356	50.0000	1.0167
423.8357	50.0000	1.0735
423.9377	50.0000	1.0876
424.0379	50.0000	1.2106
424.1379	50.0000	1.2319
424.2381	50.0000	1.1976
424.3390	50.0000	0.9033
424.4391	50.0000	0.9513
424.5407	50.0000	1.1348
424.6405	50.0000	1.0131
424.7402	50.0000	0.9011
424.8399	50.0000	1.0870
424.9409	50.0000	1.1193
425.0407	50.0000	1.1437
425.1409	50.0000	1.2636
425.2409	50.0000	0.7448
425.3413	50.0000	1.0364
425.4417	50.0000	1.3066
425.5418	50.0000	1.3347
425.6421	50.0000	1.0930
425.7423	50.0000	0.7660
425.8426	50.0000	0.7590
425.9427	50.0000	0.8223
426.0418	50.0000	1.1533
426.1422	50.0000	0.7974
426.2428	50.0000	0.6443
426.3434	50.0000	0.5768
426.4436	50.0000	0.5454
426.5437	50.0000	0.7040
426.6437	50.0000	1.3416
426.7437	50.0000	1.4101
426.8437	50.0000	1.1733
426.9449	50.0000	1.0358
427.0456	50.0000	0.8498
427.1457	50.0000	0.3729
427.2456	50.0000	-0.3426
427.3455	50.0000	-0.3502
427.4448	50.0000	-0.3532
427.5450	50.0000	-0.3492
427.6457	50.0000	-0.3484
427.7455	50.0000	-0.3498
427.8462	50.0000	-0.3545
427.9477	50.0000	-0.3538
428.0475	50.0000	-0.3532
428.1471	50.0000	-0.3548
428.2487	50.0000	-0.3547
428.3481	50.0000	-0.3552
428.4480	50.0000	-0.3530
428.5482	50.0000	-0.3526
428.6478	50.0000	-0.3553
428.7478	50.0000	-0.3522
428.8481	50.0000	-0.3538
428.9481	50.0000	-0.3552
429.0481	50.0000	-0.3542
429.1487	50.0000	-0.3569
429.2481	50.0000	-0.3533
429.3481	50.0000	-0.3500
429.4481	50.0000	-0.3527
429.5482	50.0000	-0.3528
429.6488	50.0000	-0.3547
429.7494	50.0000	-0.3542
429.8496	50.0000	-0.3548
429.9489	50.0000	-0.3530
430.0496	50.0000	-0.3555
430.1495	50.0000	-0.3553
430.2494	50.0000	-0.3513
430.3497	50.0000	-0.3591
430.4496	50.0000	-0.3540
430.5493	50.0000	-0.3536
430.6501	50.0000	-0.3554
430.7503	50.0000	-0.3536
430.8507	50.0000	-0.3531
430.9509	50.0000	-0.3548
431.0511	50.0000	-0.3535
431.1513	50.0000	-0.3538
431.2509	50.0000	-0.3518
431.3518	50.0000	-0.3544
431.4528	50.0000	-0.3554
431.5535	50.0000	-0.3531
431.6529	50.0000	-0.3533
431.7537	50.0000	-0.3578
431.8535	50.0000	-0.3515
431.9534	50.0000	-0.3527
432.0533	50.0000	-0.3539
432.1533	50.0000	-0.3536
432.2532	50.0000	-0.3529
432.3531	50.0000	-0.3495
432.4537	50.0000	-0.3556
432.5528	50.0000	-0.3577
432.6529	50.0000	-0.3539
432.7536	50.0000	-0.3554
432.8533	50.0000	-0.3541
432.9533	50.0000	-0.3578
433.0530	50.0000	-0.3555
433.1529	50.0000	-0.3526
433.2538	50.0000	-0.3511
433.3543	50.0000	-0.3552
433.4543	50.0000	-0.3558
433.5542	50.0000	-0.3519
433.6542	50.0000	-0.3536
433.7548	50.0000	-0.3521
433.8557	50.0000	-0.3525
433.9558	50.0000	-0.3563
434.0577	50.0000	-0.3522
434.1577	50.0000	-0.3554
434.2574	50.0000	-0.3531
434.3576	50.0000	-0.3525
434.4575	50.0000	-0.3529
434.5578	50.0000	-0.3533
434.6580	50.0000	-0.3551
434.7580	50.0000	-0.3528
434.8580	50.0000	-0.3478
434.9582	50.0000	-0.3576
435.0580	50.0000	-0.3541
435.1582	50.0000	-0.3515
435.2581	50.0000	-0.3542
435.3581	50.0000	-0.3544
435.4582	50.0000	-0.3528
435.5582	50.0000	-0.3556
435.6582	50.0000	-0.3533
435.7578	50.0000	-0.3539
435.8592	50.0000	-0.3523
435.9602	50.0000	-0.3529
436.0598	50.0000	-0.3520
436.1609	50.0000	-0.3549
436.2614	50.0000	-0.3528
436.3615	50.0000	-0.3530
436.4620	50.0000	-0.3530
436.5621	50.0000	-0.3548
436.6633	50.0000	-0.3540
436.7638	50.0000	-0.3529
436.8632	50.0000	-0.3512
436.9634	50.0000	-0.3542
437.0633	50.0000	-0.3541
437.1634	50.0000	-0.3527
437.2634	50.0000	-0.3526
437.3636	50.0000	-0.3525
437.4637	50.0000	-0.3531
437.5638	50.0000	-0.3533
437.6639	50.0000	-0.3527
437.7642	50.0000	-0.3553
437.8642	50.0000	-0.3515
437.9638	50.0000	-0.3500
438.0646	50.0000	-0.3549
438.1639	50.0000	-0.3533
438.2639	50.0000	-0.3514
438.3639	50.0000	-0.3519
438.4639	50.0000	-0.3544
438.5639	50.0000	-0.3473
438.6638	50.0000	-0.3565
438.7639	50.0000	-0.3514
438.8648	50.0000	-0.3508
438.9649	50.0000	-0.3555
439.0656	50.0000	-0.3531
439.1658	50.0000	-0.3541
439.2658	50.0000	-0.3537
439.3653	50.0000	-0.3535
439.4650	50.0000	-0.3533
439.5658	50.0000	-0.3516
439.6651	50.0000	-0.3539
439.7653	50.0000	-0.3549
439.8658	50.0000	-0.3546
439.9658	50.0000	-0.3504
440.0658	50.0000	-0.3497
440.1657	50.0000	-0.3539
440.2659	50.0000	-0.3532
440.3678	50.0000	-0.3532
440.4682	50.0000	-0.3510
440.5681	50.0000	-0.3562
440.6682	50.0000	-0.3524
440.7682	50.0000	-0.3523
440.8682	50.0000	-0.3523
440.9682	50.0000	-0.3565
441.0687	50.0000	-0.3504
441.1682	50.0000	-0.3538
441.2681	50.0000	-0.3528
441.3682	50.0000	-0.3534
441.4682	50.0000	-0.3546
441.5682	50.0000	-0.3542
441.6683	50.0000	-0.3557
441.7682	50.0000	-0.3537
441.8681	50.0000	-0.3540
441.9681	50.0000	-0.3541
442.0682	50.0000	-0.3539
442.1683	50.0000	-0.3584
442.2679	50.0000	-0.3518
442.3683	50.0000	-0.3509
442.4681	50.0000	-0.3532
442.5683	50.0000	-0.3559
442.6682	50.0000	-0.3526
442.7682	50.0000	-0.3533
442.8683	50.0000	-0.3529
442.9682	50.0000	-0.3548
443.0683	50.0000	-0.3508
443.1683	50.0000	-0.3542
443.2681	50.0000	-0.3576
443.3690	50.0000	-0.3514
443.4694	50.0000	-0.3544
443.5692	50.0000	-0.3531
443.6700	50.0000	-0.3513
443.7701	50.0000	-0.3522
443.8701	50.0000	-0.3525
443.9709	50.0000	-0.3564
444.0715	50.0000	-0.3536
444.1714	50.0000	-0.3549
444.2718	50.0000	-0.3524
444.3719	50.0000	-0.3546
444.4719	50.0000	-0.3544
444.5730	50.0000	-0.3533
444.6737	50.0000	-0.3533
444.7734	50.0000	-0.3542
444.8735	50.0000	-0.3541
444.9734	50.0000	-0.3535
445.0734	50.0000	-0.3531
445.1735	50.0000	-0.3551
445.2737	50.0000	-0.3533
445.3737	50.0000	-0.3542
445.4737	50.0000	-0.3566
445.5738	50.0000	-0.3535
445.6734	50.0000	-0.3547
445.7735	50.0000	-0.3537
445.8735	50.0000	-0.3554
445.9738	50.0000	-0.3541
446.0730	50.0000	-0.3524
446.1737	50.0000	-0.3533
446.2738	50.0000	-0.3846
446.3731	50.0000	-0.4987
446.4731	50.0000	-0.6969
446.5731	50.0000	-0.9635
446.6739	50.0000	-1.0313
446.7739	50.0000	-1.3524
446.8741	50.0000	-1.4008
446.9741	50.0000	-1.6249
447.0744	50.0000	-1.7274
447.1741	50.0000	-1.5169
447.2747	50.0000	-1.5440
447.3750	50.0000	-1.7162
447.4758	50.0000	-1.6934
447.5755	50.0000	-1.7021
447.6758	50.0000	-1.3093
447.7759	50.0000	-1.2264
447.8759	50.0000	-1.3118
447.9754	50.0000	-1.4304
448.0764	50.0000	-1.7864
448.1778	50.0000	-1.6611
448.2776	50.0000	-2.0910
448.3785	50.0000	-2.2824
448.4779	50.0000	-2.1633
448.5786	50.0000	-2.0832
448.6785	50.0000	-1.2133
448.7781	50.0000	-1.3817
448.8782	50.0000	-1.4401
448.9785	50.0000	-1.6926
449.0783	50.0000	-1.6063
449.1782	50.0000	-1.9029
449.2783	50.0000	-1.9882
449.3783	50.0000	-1.9324
449.4783	50.0000	-1.4606
449.5783	50.0000	-0.6999
449.6781	50.0000	-0.8641
449.7783	50.0000	-0.6835
449.8782	50.0000	-1.4931
449.9783	50.0000	-0.8205
450.0792	50.0000	-1.3654
450.1810	50.0000	-0.8372
450.2814	50.0000	0.0649
450.3810	50.0000	-0.1511
450.4816	50.0000	-0.4671
450.5818	50.0000	-0.4266
450.6816	50.0000	0.0023
450.7813	50.0000	-0.5639
450.8810	50.0000	-0.6486
450.9818	50.0000	0.3604
451.0815	50.0000	0.5236
451.1812	50.0000	0.6329
451.2810	50.0000	0.5462
451.3821	50.0000	0.8979
451.4821	50.0000	0.6779
451.5822	50.0000	0.6582
451.6823	50.0000	0.6970
451.7826	50.0000	1.2289
451.8826	50.0000	1.3000
451.9828	50.0000	1.0943
452.0825	50.0000	1.0494
452.1823	50.0000	1.1101
452.2827	50.0000	1.1110
452.3830	50.0000	1.0831
452.4840	50.0000	1.2836
452.5841	50.0000	1.4543
452.6848	50.0000	1.3086
452.7850	50.0000	1.1863
452.8859	50.0000	1.1260
452.9859	50.0000	0.9321
453.0859	50.0000	0.9171
453.1859	50.0000	1.0679
453.2859	50.0000	1.4830
453.3852	50.0000	1.0175
453.4869	50.0000	1.1888
453.5877	50.0000	0.8146
453.6873	50.0000	0.4743
453.7875	50.0000	0.2699
453.8870	50.0000	1.1308
453.9871	50.0000	0.9858
454.0876	50.0000	0.9153
454.1874	50.0000	0.4778
454.2872	50.0000	0.7091
454.3871	50.0000	0.9082
454.4877	50.0000	0.8400
454.5876	50.0000	1.2208
454.6877	50.0000	1.4169
454.7877	50.0000	1.2374
454.8874	50.0000	1.0619
454.9878	50.0000	1.1150
455.0877	50.0000	0.7755
455.1879	50.0000	1.2261
455.2879	50.0000	0.8916
455.3879	50.0000	1.3553
455.4879	50.0000	1.1694
455.5879	50.0000	1.3153
455.6880	50.0000	1.2686
455.7884	50.0000	1.4496
455.8883	50.0000	1.2303
455.9880	50.0000	1.2569
456.0881	50.0000	1.0465
456.1883	50.0000	0.9295
456.2884	50.0000	0.7371
456.3893	50.0000	0.7845
456.4891	50.0000	1.0383
456.5893	50.0000	1.0500
456.6898	50.0000	0.9191
456.7894	50.0000	0.6550
456.8895	50.0000	1.0213
456.9900	50.0000	0.7121
457.0900	50.0000	0.7995
457.1912	50.0000	0.7515
457.2916	50.0000	0.5584
457.3920	50.0000	0.5115
457.4921	50.0000	0.4658
457.5926	50.0000	0.5246
457.6929	50.0000	0.5439
457.7931	50.0000	0.7292
457.8933	50.0000	0.4365
457.9937	50.0000	0.6233
458.0937	50.0000	0.7729
458.1937	50.0000	1.0856
458.2937	50.0000	1.0115
458.3933	50.0000	0.9778
458.4936	50.0000	1.0033
458.5936	50.0000	1.0197
458.6936	50.0000	1.5115
458.7938	50.0000	1.5265
458.8930	50.0000	1.3830
458.9932	50.0000	1.3092
459.0944	50.0000	1.3523
459.1945	50.0000	1.1572
459.2942	50.0000	1.8407
459.3948	50.0000	1.5505
459.4948	50.0000	1.7952
459.5948	50.0000	1.7917
459.6948	50.0000	1.5502
459.7946	50.0000	1.1600
459.8952	50.0000	1.2105
459.9955	50.0000	1.1282
460.0961	50.0000	1.1223
460.1969	50.0000	1.1275
460.2981	50.0000	1.0780
460.3984	50.0000	1.7218
460.4984	50.0000	1.8197
460.5984	50.0000	1.5512
460.6982	50.0000	1.5407
460.8001	50.0000	1.5391
460.9010	50.0000	1.5408
461.0010	50.0000	1.5394
461.1013	50.0000	1.5402
461.2018	50.0000	1.5399
461.3022	50.0000	1.5367
461.4027	50.0000	1.5403
461.5022	50.0000	1.5402
461.6024	50.0000	1.5360
461.7026	50.0000	1.5361
461.8031	50.0000	1.5371
461.9037	50.0000	1.5380
462.0036	50.0000	1.5393
462.1036	50.0000	1.5362
462.2036	50.0000	1.5344
462.3040	50.0000	1.5395
462.4040	50.0000	1.5397
462.5039	50.0000	1.5386
462.6038	50.0000	1.5427
462.7039	50.0000	1.5356
462.8036	50.0000	1.5391
462.9038	50.0000	1.5377
463.0039	50.0000	1.5438
463.1041	50.0000	1.5369
463.2051	50.0000	1.5424
463.3061	50.0000	1.5390
463.4081	50.0000	1.5419
463.5082	50.0000	1.5403
463.6081	50.0000	1.5401
463.7084	50.0000	1.5407
463.8083	50.0000	1.5385
463.9084	50.0000	1.5381
464.0084	50.0000	1.5410
464.1083	50.0000	1.5405
464.2084	50.0000	1.5402
464.3083	50.0000	1.5392
464.4086	50.0000	1.5381
464.5083	50.0000	1.5386
464.6083	50.0000	1.5376
464.7084	50.0000	1.5408
464.8084	50.0000	1.5388
464.9084	50.0000	1.5394
465.0084	50.0000	1.5379
465.1083	50.0000	1.5415
465.2084	50.0000	1.5402
465.3084	50.0000	1.5393
465.4085	50.0000	1.5376
465.5084	50.0000	1.5353
465.6084	50.0000	1.5354
465.7084	50.0000	1.5352
465.8084	50.0000	1.5397
465.9084	50.0000	1.5431
466.0093	50.0000	1.5393
466.1098	50.0000	1.5383
466.2092	50.0000	1.5391
466.3100	50.0000	1.5360
466.4097	50.0000	1.5357
466.5093	50.0000	1.5406
466.6096	50.0000	1.5364
466.7094	50.0000	1.5359
466.8100	50.0000	1.5414
466.9101	50.0000	1.5391
467.0106	50.0000	1.5365
467.1102	50.0000	1.5361
467.2104	50.0000	1.5391
467.3106	50.0000	1.5354
467.4111	50.0000	1.5363
467.5120	50.0000	1.5371
467.6112	50.0000	1.5339
467.7121	50.0000	1.5378
467.8123	50.0000	1.5382
467.9124	50.0000	1.5347
468.0128	50.0000	1.5352
468.1132	50.0000	1.5380
468.2137	50.0000	1.5426
468.3139	50.0000	1.5390
468.4141	50.0000	1.5399
468.5135	50.0000	1.5372
468.6136	50.0000	1.5380
468.7137	50.0000	1.5404
468.8137	50.0000	1.5378
468.9140	50.0000	1.5419
469.0141	50.0000	1.5396
469.1136	50.0000	1.5307
469.2137	50.0000	1.5409
469.3137	50.0000	1.5358
469.4137	50.0000	1.5351
469.5138	50.0000	1.5400
469.6135	50.0000	1.5437
469.7135	50.0000	1.5407
469.8135	50.0000	1.5358
469.9136	50.0000	1.5412
470.0142	50.0000	1.5405
470.1141	50.0000	1.5381
470.2143	50.0000	1.5407
470.3142	50.0000	1.5384
470.4142	50.0000	1.5406
470.5153	50.0000	1.5386
470.6161	50.0000	1.5421
470.7170	50.0000	1.5414
470.8181	50.0000	1.5376
470.9202	50.0000	1.5385
471.0209	50.0000	1.5405
471.1207	50.0000	1.5385
471.2203	50.0000	1.5387
471.3202	50.0000	1.5369
471.4203	50.0000	1.5375
471.5211	50.0000	1.5367
471.6207	50.0000	1.5408
471.7202	50.0000	1.5377
471.8202	50.0000	1.5388
471.9204	50.0000	1.5290
472.0211	50.0000	1.5429
472.1212	50.0000	1.5350
472.2213	50.0000	1.5393
472.3213	50.0000	1.5367
472.4225	50.0000	1.5384
472.5227	50.0000	1.5331
472.6231	50.0000	1.5349
472.7232	50.0000	1.5370
472.8232	50.0000	1.5350
472.9232	50.0000	1.5408
473.0233	50.0000	1.5402
473.1233	50.0000	1.5330
473.2233	50.0000	1.5380
473.3235	50.0000	1.5282
473.4237	50.0000	1.5343
473.5237	50.0000	1.5387
473.6238	50.0000	1.5412
473.7240	50.0000	1.5364
473.8235	50.0000	1.5380
473.9242	50.0000	1.5429
474.0242	50.0000	1.5395
474.1241	50.0000	1.5362
474.2242	50.0000	1.5358
474.3249	50.0000	1.5388
474.4251	50.0000	1.5353
474.5251	50.0000	1.5352
474.6252	50.0000	1.5383
474.7261	50.0000	1.5298
474.8259	50.0000	1.5393
474.9255	50.0000	1.5386
475.0254	50.0000	1.5386
475.1255	50.0000	1.5364
475.2255	50.0000	1.5408
475.3261	50.0000	1.5377
475.4261	50.0000	1.5379
475.5261	50.0000	1.5373
475.6261	50.0000	1.5361
475.7254	50.0000	1.5361
475.8261	50.0000	1.5375
475.9261	50.0000	1.5354
476.0260	50.0000	1.5384
476.1261	50.0000	1.5378
476.2253	50.0000	1.5366
476.3261	50.0000	1.5392
476.4259	50.0000	1.5375
476.5261	50.0000	1.5375
476.6261	50.0000	1.5378
476.7261	50.0000	1.5449
476.8261	50.0000	1.5394
476.9257	50.0000	1.5379
477.0261	50.0000	1.5363
477.1261	50.0000	1.5387
477.2261	50.0000	1.5397
477.3260	50.0000	1.5367
477.4260	50.0000	1.5394
477.5259	50.0000	1.5348
477.6261	50.0000	1.5344
477.7261	50.0000	1.5376
477.8261	50.0000	1.5351
477.9255	50.0000	1.5383
478.0261	50.0000	1.5362
478.1260	50.0000	1.5335
478.2256	50.0000	1.5341
478.3257	50.0000	1.5383
478.4258	50.0000	1.5339
478.5261	50.0000	1.5392
478.6258	50.0000	1.5363
478.7261	50.0000	1.5361
478.8260	50.0000	1.5358
478.9261	50.0000	1.5353
479.0262	50.0000	1.5401
479.1263	50.0000	1.5342
479.2271	50.0000	1.5357
479.3271	50.0000	1.5404
479.4271	50.0000	1.5357
479.5262	50.0000	1.5376
479.6268	50.0000	1.5363
479.7271	50.0000	1.5382
479.8279	50.0000	1.5333
479.9278	50.0000	1.5401
480.0275	50.0000	1.5347
480.1276	50.0000	1.5367
480.2286	50.0000	1.5363
480.3282	50.0000	1.5363
480.4290	50.0000	1.5335
480.5302	50.0000	1.5380
480.6295	50.0000	1.5382
480.7294	50.0000	1.5366
480.8296	50.0000	1.5410
480.9295	50.0000	1.5376
481.0298	50.0000	1.5357
481.1300	50.0000	1.5380
481.2302	50.0000	1.5358
481.3312	50.0000	1.5383
481.4308	50.0000	1.5410
481.5312	50.0000	1.5364
481.6314	50.0000	1.5379
481.7317	50.0000	1.5370
481.8313	50.0000	1.5351
481.9326	50.0000	1.5373
482.0328	50.0000	1.5382
482.1333	50.0000	1.5355
482.2338	50.0000	1.5369
482.3334	50.0000	1.5396
482.4334	50.0000	1.5352
482.5342	50.0000	1.5380
482.6343	50.0000	1.5375
482.7355	50.0000	1.5369
482.8362	50.0000	1.5378
482.9362	50.0000	1.5372
483.0381	50.0000	1.5358
483.1376	50.0000	1.5349
483.2376	50.0000	1.5389
483.3374	50.0000	1.5366
483.4377	50.0000	1.5345
483.5377	50.0000	1.5387
483.6373	50.0000	1.5388
483.7382	50.0000	1.5373
483.8379	50.0000	1.5386
483.9373	50.0000	1.5382
484.0384	50.0000	1.5344
484.1385	50.0000	1.5371
484.2395	50.0000	1.5405
484.3412	50.0000	1.5345
484.4405	50.0000	1.5400
484.5408	50.0000	1.5320
484.6418	50.0000	1.5321
484.7415	50.0000	1.5408
484.8417	50.0000	1.5352
484.9414	50.0000	1.5401
485.0432	50.0000	1.5409
485.1425	50.0000	1.5405
485.2430	50.0000	1.5370
485.3429	50.0000	1.5353
485.4426	50.0000	1.5384
485.5441	50.0000	1.5374
485.6438	50.0000	1.5387
485.7437	50.0000	1.5388
485.8439	50.0000	1.5409
485.9435	50.0000	1.5358
486.0438	50.0000	1.5362
486.1437	50.0000	1.5382
486.2440	50.0000	1.5348
486.3438	50.0000	1.5336
486.4438	50.0000	1.5368
486.5435	50.0000	1.5384
486.6439	50.0000	1.5392
486.7440	50.0000	1.5414
486.8438	50.0000	1.5419
486.9439	50.0000	1.5341
487.0441	50.0000	1.5359
487.1442	50.0000	1.5342
487.2439	50.0000	1.5427
487.3440	50.0000	1.5377
487.4438	50.0000	1.5386
487.5434	50.0000	1.5388
487.6435	50.0000	1.5338
487.7443	50.0000	1.5359
487.8453	50.0000	1.5372
487.9462	50.0000	1.5361
488.0458	50.0000	1.5364
488.1462	50.0000	1.5314
488.2462	50.0000	1.5322
488.3463	50.0000	1.5383
488.4464	50.0000	1.5408
488.5482	50.0000	1.5332
488.6481	50.0000	1.5341
488.7480	50.0000	1.5371
488.8480	50.0000	1.5392
488.9494	50.0000	1.5415
489.0499	50.0000	1.5370
489.1496	50.0000	1.5396
489.2497	50.0000	1.5393
489.3504	50.0000	1.5386
489.4511	50.0000	1.5367
489.5508	50.0000	1.5422
489.6512	50.0000	1.5396
489.7513	50.0000	1.5382
489.8516	50.0000	1.5340
489.9520	50.0000	1.5376
490.0525	50.0000	1.5443
490.1524	50.0000	1.5333
490.2528	50.0000	1.5351
490.3527	50.0000	1.5372
490.4528	50.0000	1.5407
490.5534	50.0000	1.5331
490.6535	50.0000	1.5396
490.7538	50.0000	1.5302
490.8550	50.0000	1.5314
490.9547	50.0000	1.5394
491.0548	50.0000	1.5385
491.1549	50.0000	1.5320
491.2554	50.0000	1.5355
491.3559	50.0000	1.5375
491.4561	50.0000	1.5385
491.5558	50.0000	1.5366
491.6560	50.0000	1.5290
491.7561	50.0000	1.5371
491.8562	50.0000	1.5319
491.9562	50.0000	1.5348
492.0561	50.0000	1.5384
492.1562	50.0000	1.5348
492.2562	50.0000	1.5373
492.3562	50.0000	1.5393
492.4561	50.0000	1.5363
492.5562	50.0000	1.5384
492.6555	50.0000	1.5376
492.7557	50.0000	1.5372
492.8556	50.0000	1.5285
492.9561	50.0000	1.5343
493.0561	50.0000	1.5410
493.1558	50.0000	1.5385
493.2560	50.0000	1.5370
493.3562	50.0000	1.5384
493.4561	50.0000	1.5400
493.5559	50.0000	1.5390
493.6563	50.0000	1.5358
493.7563	50.0000	1.5362
493.8562	50.0000	1.5385
493.9562	50.0000	1.5399
494.0555	50.0000	1.5375
494.1558	50.0000	1.5350
494.2562	50.0000	1.5354
494.3554	50.0000	1.5380
494.4563	50.0000	1.5371
494.5557	50.0000	1.5369
494.6562	50.0000	1.5389
494.7563	50.0000	1.5368
494.8558	50.0000	1.5413
