4/12/2023 3:41:07 pm
Time(s)	Displacement(mm)	Force(N)
0.0000	-315.4950	0.1475
0.1193	-315.0820	1.1681
0.2200	-314.4310	1.6096
0.3197	-313.7470	1.8010
0.4200	-313.0980	1.8862
0.5193	-312.4140	1.9282
0.6200	-311.7640	1.9442
0.7200	-311.0810	1.9431
0.8194	-310.4310	1.9280
0.9191	-309.7480	1.9050
1.0200	-309.0980	1.8753
1.1199	-308.4140	1.8403
1.2210	-307.7650	1.8057
1.3204	-307.0820	1.7703
1.4207	-306.4320	1.7329
1.5204	-305.7460	1.6952
1.6208	-305.0620	1.6565
1.7202	-304.4130	1.6216
1.8215	-303.7290	1.5896
1.9215	-303.0800	1.5565
2.0216	-302.3970	1.5274
2.1220	-301.7470	1.4964
2.2216	-301.0640	1.4729
2.3218	-300.4140	1.4449
2.4217	-299.7300	1.4241
2.5219	-299.0810	1.4020
2.6212	-298.3970	1.3774
2.7224	-297.7480	1.3627
2.8238	-297.0640	1.3425
2.9233	-296.3810	1.3283
3.0234	-295.7320	1.3118
3.1249	-295.0480	1.2965
3.2242	-294.3980	1.2808
3.3260	-293.7150	1.2711
3.4258	-293.0650	1.2615
3.5254	-292.3820	1.2507
3.6252	-291.6980	1.2417
3.7270	-291.0490	1.2303
3.8277	-290.3650	1.2238
3.9274	-289.7160	1.2167
4.0272	-289.0300	1.2112
4.1276	-288.3800	1.2006
4.2275	-287.6970	1.1960
4.3278	-287.0470	1.1897
4.4292	-286.3640	1.1873
4.5283	-285.7140	1.1797
4.6291	-285.0310	1.1735
4.7296	-284.3470	1.1690
4.8292	-283.6980	1.1651
4.9299	-283.0140	1.1623
5.0313	-282.3300	1.1602
5.1325	-281.6810	1.1599
5.2326	-280.9980	1.1573
5.3334	-280.3480	1.1539
5.4349	-279.6650	1.1516
5.5357	-278.9810	1.1470
5.6366	-278.2970	1.1465
5.7370	-277.6480	1.1463
5.8381	-276.9640	1.1442
5.9382	-276.2810	1.1449
6.0400	-275.6310	1.1481
6.1392	-274.9450	1.1476
6.2416	-274.2620	1.1492
6.3415	-273.6120	1.1503
6.4419	-272.9630	1.1497
6.5415	-272.2790	1.1556
6.6414	-271.5960	1.1612
6.7419	-270.9470	1.1664
6.8419	-270.2630	1.1710
6.9420	-269.6130	1.1807
7.0418	-268.9640	1.1902
7.1414	-268.2780	1.1968
7.2418	-267.5940	1.2070
7.3428	-266.9450	1.2132
7.4425	-266.2610	1.2250
7.5429	-265.6670	1.2136
7.6431	-265.6390	1.2311
7.7431	-265.6390	1.2315
7.8430	-265.6390	1.2309
7.9437	-265.6390	1.2335
8.0433	-265.6390	1.2332
8.1438	-265.6390	1.2304
8.2436	-265.6390	1.2313
8.3440	-265.6390	1.2331
8.4435	-265.6400	1.2328
8.5438	-265.6400	1.2326
8.6439	-265.6400	1.2299
8.7437	-265.6400	1.2345
8.8438	-265.6400	1.2335
8.9435	-265.6400	1.2321
9.0442	-265.6400	1.2292
9.1452	-265.6400	1.2316
9.2447	-265.6400	1.2297
9.3445	-265.6400	1.2318
9.4442	-265.6400	1.2300
9.5444	-265.6400	1.2290
9.6443	-265.6400	1.2295
9.7450	-265.6400	1.2294
9.8448	-265.6400	1.2307
9.9443	-265.6400	1.2283
10.0450	-265.6400	1.2279
10.1445	-265.6400	1.2293
10.2446	-265.6400	1.2309
10.3445	-265.6400	1.2272
10.4453	-265.6400	1.2270
10.5455	-265.6400	1.2287
10.6461	-265.6400	1.2272
10.7455	-265.6400	1.2304
10.8464	-265.6400	1.2298
10.9476	-265.6400	1.2327
11.0474	-265.6400	1.2285
11.1472	-265.6400	1.2305
11.2483	-265.6400	1.2303
11.3484	-265.6400	1.2308
11.4492	-265.6400	1.2311
11.5494	-265.6400	1.2276
11.6493	-265.6400	1.2280
11.7498	-265.6400	1.2310
11.8499	-265.6400	1.2296
11.9492	-265.6400	1.2304
12.0502	-265.6400	1.2278
12.1503	-265.6400	1.2304
12.2509	-265.6400	1.2291
12.3503	-265.6400	1.2290
12.4519	-265.6400	1.2270
12.5515	-265.6400	1.2272
12.6514	-265.6400	1.2268
12.7516	-265.6400	1.2257
12.8529	-265.6400	1.2230
12.9525	-265.6400	1.2281
13.0539	-265.6400	1.2250
13.1534	-265.6400	1.2252
13.2538	-265.6400	1.2258
13.3542	-265.6400	1.2290
13.4552	-265.6400	1.2276
13.5560	-265.6400	1.2260
13.6559	-265.6400	1.2273
13.7557	-265.6400	1.2274
13.8560	-265.6400	1.2254
13.9562	-265.6400	1.2240
14.0557	-265.6400	1.2258
14.1553	-265.6400	1.2280
14.2560	-265.6400	1.2259
14.3558	-265.6400	1.2260
14.4555	-265.6400	1.2272
14.5553	-265.6400	1.2282
14.6553	-265.6400	1.2314
14.7563	-265.6400	1.2279
14.8573	-265.6400	1.2286
14.9575	-265.6400	1.2286
15.0573	-265.6400	1.2279
15.1580	-265.6400	1.2279
15.2582	-265.6400	1.2289
15.3576	-265.6400	1.2293
15.4576	-265.6400	1.2277
15.5574	-265.6400	1.2284
15.6574	-265.6400	1.2289
15.7577	-265.6400	1.2294
15.8577	-265.6400	1.2300
15.9577	-265.6400	1.2270
16.0577	-265.6400	1.2296
16.1580	-265.6400	1.2296
16.2580	-265.7680	1.2143
16.3776	-266.1790	1.2157
16.4778	-266.8640	1.2126
16.5783	-267.5130	1.2034
16.6794	-268.1970	1.1907
16.7794	-268.8830	1.1809
16.8793	-269.5330	1.1703
16.9809	-270.2160	1.1640
17.0809	-270.8660	1.1537
17.1816	-271.5520	1.1466
17.2817	-272.2010	1.1401
17.3825	-272.8850	1.1398
17.4832	-273.5340	1.1378
17.5823	-274.2200	1.1365
17.6826	-274.8690	1.1349
17.7827	-275.5530	1.1369
17.8832	-276.2370	1.1330
17.9830	-276.8860	1.1296
18.0829	-277.5700	1.1289
18.1825	-278.2190	1.1329
18.2832	-278.9020	1.1311
18.3840	-279.5520	1.1291
18.4842	-280.2360	1.1300
18.5852	-280.8850	1.1279
18.6848	-281.5690	1.1291
18.7849	-282.2520	1.1296
18.8845	-282.9020	1.1304
18.9846	-283.5850	1.1274
19.0849	-284.2350	1.1294
19.1858	-284.9180	1.1238
19.2862	-285.5680	1.1237
19.3861	-286.2540	1.1259
19.4862	-286.9030	1.1238
19.5858	-287.5870	1.1265
19.6854	-288.2360	1.1245
19.7857	-288.9200	1.1238
19.8857	-289.5690	1.1227
19.9882	-290.2870	1.1212
20.0868	-290.9020	1.1191
20.1868	-291.5860	1.1169
20.2868	-292.2350	1.1158
20.3865	-292.9190	1.1113
20.4882	-293.6020	1.1021
20.5873	-294.2520	1.0964
20.6880	-294.9350	1.0932
20.7881	-295.5850	1.0829
20.8874	-296.2340	1.0687
20.9873	-296.9200	1.0582
21.0882	-297.5690	1.0471
21.1896	-298.2870	1.0327
21.2890	-298.9370	1.0173
21.3893	-299.5870	0.9940
21.4895	-300.2700	0.9709
21.5904	-300.9540	0.9457
21.6921	-301.6030	0.9194
21.7914	-302.2860	0.8983
21.8913	-302.9360	0.8728
21.9915	-303.6220	0.8374
22.0917	-304.2710	0.8025
22.1914	-304.9570	0.7689
22.2913	-305.6070	0.7257
22.3922	-306.2910	0.6818
22.4917	-306.9400	0.6351
22.5914	-307.6230	0.5853
22.6914	-308.2730	0.5275
22.7918	-308.9570	0.4658
22.8915	-309.6060	0.3982
22.9914	-310.2890	0.3281
23.0916	-310.9390	0.2481
23.1919	-311.6220	0.1620
23.2916	-312.2720	0.0649
23.3919	-312.9550	-0.0356
23.4918	-312.9550	-0.1543
23.5923	-314.2910	-0.2815
23.6917	-314.9400	-0.4190
23.7923	-315.5940	-0.7745
23.8915	-315.6410	-1.0709
23.9917	-315.6410	-0.9537
24.0923	-315.6410	-0.9055
24.1918	-315.6410	-0.8741
24.2922	-315.6400	-0.8512
24.3920	-315.6400	-0.8333
24.4917	-315.6400	-0.8193
24.5921	-315.6400	-0.8074
24.6914	-315.6400	-0.7979
24.7924	-315.6400	-0.7878
24.8936	-315.6400	-0.7807
24.9940	-315.6400	-0.7739
25.0938	-315.6400	-0.7663
25.1940	-315.6400	-0.7611
25.2935	-315.6400	-0.7542
25.3951	-315.6400	-0.7481
25.4953	-315.6400	-0.7430
25.5944	-315.6400	-0.7397
25.6948	-315.6400	-0.7363
25.7946	-315.6400	-0.7343
25.8957	-315.6400	-0.7320
25.9957	-315.6400	-0.7280
26.0957	-315.6400	-0.7247
26.1954	-315.6400	-0.7210
26.2974	-315.6400	-0.7186
26.3977	-315.6400	-0.7146
26.5002	-315.6400	-0.7101
26.6001	-315.6400	-0.7095
26.6997	-315.6400	-0.7081
26.7996	-315.6400	-0.7039
26.9014	-315.6400	-0.7020
27.0007	-315.6400	-0.7021
27.1012	-315.6400	-0.7006
27.2022	-315.6400	-0.6985
27.3015	-315.6400	-0.6954
27.4017	-315.6400	-0.6944
27.5017	-315.6400	-0.6915
27.6016	-315.6400	-0.6889
27.7024	-315.6400	-0.6885
27.8035	-315.6400	-0.6865
27.9051	-315.6400	-0.6831
28.0063	-315.6400	-0.6818
28.1062	-315.6400	-0.6827
28.2059	-315.6400	-0.6782
28.3057	-315.6400	-0.6773
28.4063	-315.6400	-0.6760
28.5054	-315.6400	-0.6773
28.6054	-315.6400	-0.6722
28.7058	-315.6400	-0.6736
28.8064	-315.6400	-0.6725
28.9068	-315.6400	-0.6726
29.0073	-315.6400	-0.6731
29.1087	-315.6400	-0.6699
29.2075	-315.6400	-0.6696
29.3081	-315.6400	-0.6694
29.4090	-315.6400	-0.6678
29.5089	-315.6400	-0.6654
29.6093	-315.6400	-0.6643
29.7084	-315.6400	-0.6626
29.8088	-315.6400	-0.6614
29.9084	-315.6400	-0.6578
30.0089	-315.6400	-0.6585
30.1103	-315.6400	-0.6576
30.2122	-315.6400	-0.6541
30.3124	-315.6400	-0.6549
30.4135	-315.6400	-0.6544
30.5141	-315.6400	-0.6503
30.6143	-315.6400	-0.6536
30.7137	-315.6400	-0.6534
30.8154	-315.6400	-0.6526
30.9151	-315.6400	-0.6519
31.0151	-315.6400	-0.6482
31.1148	-315.6400	-0.6479
31.2161	-315.6400	-0.6502
31.3157	-315.6400	-0.6483
31.4162	-315.6400	-0.6467
31.5156	-315.6400	-0.6458
31.6155	-315.6400	-0.6470
31.7163	-315.6400	-0.6464
31.8159	-315.6400	-0.6465
31.9162	-315.6400	-0.6439
32.0160	-315.6400	-0.6422
32.1155	-315.6400	-0.6403
32.2162	-315.6400	-0.6418
32.3162	-315.6400	-0.6404
32.4155	-315.6400	-0.6420
32.5155	-315.6400	-0.6406
32.6165	-315.6400	-0.6390
32.7173	-315.6400	-0.6398
32.8172	-315.6400	-0.6388
32.9173	-315.6400	-0.6353
33.0174	-315.6400	-0.6366
33.1165	-315.6400	-0.6353
33.2175	-315.6400	-0.6338
33.3185	-315.6400	-0.6332
33.4196	-315.6400	-0.6325
33.5202	-315.6400	-0.6302
33.6202	-315.6400	-0.6294
33.7198	-315.6400	-0.6301
33.8198	-315.6400	-0.6293
33.9200	-315.6400	-0.6283
34.0212	-315.6400	-0.6277
34.1212	-315.6400	-0.6277
34.2207	-315.6400	-0.6288
34.3205	-315.6400	-0.6243
34.4215	-315.6400	-0.6238
34.5216	-315.6400	-0.6252
34.6219	-315.6400	-0.6240
34.7216	-315.6400	-0.6222
34.8219	-315.6400	-0.6217
34.9216	-315.6400	-0.6229
35.0228	-315.6400	-0.6234
35.1225	-315.6400	-0.6213
35.2231	-315.6400	-0.6230
35.3236	-315.6400	-0.6211
35.4237	-315.6400	-0.6207
35.5242	-315.6400	-0.6200
35.6240	-315.6400	-0.6201
35.7237	-315.6400	-0.6197
35.8238	-315.6400	-0.6181
35.9253	-315.6400	-0.6159
36.0251	-315.6400	-0.6166
36.1263	-315.6400	-0.6170
36.2271	-315.6400	-0.6154
36.3277	-315.6400	-0.6156
36.4294	-315.6400	-0.6153
36.5291	-315.6400	-0.6122
36.6296	-315.6400	-0.6127
36.7298	-315.6400	-0.6131
36.8295	-315.6400	-0.6142
36.9315	-315.6400	-0.6132
37.0319	-315.6400	-0.6116
37.1328	-315.6400	-0.6112
37.2326	-315.6400	-0.6128
37.3333	-315.6400	-0.6100
37.4330	-315.6400	-0.6117
37.5332	-315.6400	-0.6114
37.6325	-315.6400	-0.6093
37.7343	-315.6400	-0.6096
37.8337	-315.6400	-0.6086
37.9341	-315.6400	-0.6095
38.0335	-315.6400	-0.6076
38.1336	-315.6400	-0.6079
38.2344	-315.6400	-0.6063
38.3355	-315.6400	-0.6053
38.4366	-315.6400	-0.6055
38.5371	-315.6400	-0.6063
38.6371	-315.6400	-0.6071
38.7372	-315.6400	-0.6046
38.8375	-315.6400	-0.6052
38.9378	-315.6400	-0.6087
39.0384	-315.6400	-0.6084
39.1379	-315.6400	-0.6058
39.2385	-315.6400	-0.6015
39.3387	-315.6400	-0.6024
39.4402	-315.6400	-0.6038
39.5402	-315.6400	-0.6017
39.6400	-315.6400	-0.6026
39.7398	-315.6400	-0.6011
39.8399	-315.6400	-0.6020
39.9395	-315.6400	-0.6020
40.0402	-315.6400	-0.5997
40.1400	-315.6400	-0.5995
40.2402	-315.6400	-0.5988
40.3412	-315.6400	-0.5993
40.4405	-315.6400	-0.5978
40.5413	-315.6400	-0.5977
40.6414	-315.6400	-0.5989
40.7422	-315.6400	-0.6005
40.8415	-315.6400	-0.5978
40.9416	-315.6400	-0.5963
41.0420	-315.6400	-0.5971
41.1419	-315.6400	-0.5953
41.2422	-315.6400	-0.5963
41.3423	-315.6400	-0.5962
41.4418	-315.6400	-0.5969
41.5423	-315.6400	-0.5962
41.6418	-315.6400	-0.5961
41.7415	-315.6400	-0.5968
41.8423	-315.6400	-0.5947
41.9422	-315.6400	-0.5948
42.0417	-315.6400	-0.5957
42.1420	-315.6400	-0.5954
42.2419	-315.6400	-0.5963
42.3416	-315.6400	-0.5941
42.4424	-315.6400	-0.5947
42.5418	-315.6400	-0.5934
42.6427	-315.6400	-0.5938
42.7429	-315.6400	-0.5922
42.8427	-315.6400	-0.5929
42.9435	-315.6400	-0.5929
43.0443	-315.6400	-0.5920
43.1443	-315.6400	-0.5892
43.2455	-315.6400	-0.5899
43.3450	-315.6400	-0.5915
43.4455	-315.6400	-0.5922
43.5447	-315.6400	-0.5902
43.6462	-315.6400	-0.5912
43.7458	-315.6400	-0.5908
43.8462	-315.6400	-0.5892
43.9463	-315.6400	-0.5877
44.0474	-315.6400	-0.5884
44.1478	-315.6400	-0.5919
44.2466	-315.6400	-0.5900
44.3469	-315.6400	-0.5877
44.4491	-315.6400	-0.5882
44.5478	-315.6400	-0.5875
44.6479	-315.6400	-0.5851
44.7475	-315.6400	-0.5846
44.8484	-315.6400	-0.5858
44.9479	-315.6400	-0.5865
45.0479	-315.6400	-0.5839
45.1476	-315.6400	-0.5871
45.2490	-315.6400	-0.5871
45.3489	-315.6400	-0.5817
45.4500	-315.6400	-0.5819
45.5498	-315.6400	-0.5826
45.6503	-315.6400	-0.5853
45.7498	-315.6400	-0.5836
45.8502	-315.6400	-0.5814
45.9497	-315.6400	-0.5811
46.0503	-315.6400	-0.5829
46.1499	-315.6400	-0.5827
46.2502	-315.6400	-0.5828
46.3502	-315.6400	-0.5821
46.4503	-315.6400	-0.5834
46.5503	-315.6400	-0.5829
46.6501	-315.6400	-0.5828
46.7502	-315.6400	-0.5802
46.8502	-315.6400	-0.5818
46.9497	-315.6400	-0.5789
47.0497	-315.6400	-0.5792
47.1504	-315.6400	-0.5786
47.2498	-315.6400	-0.5834
47.3508	-315.6400	-0.5816
47.4516	-315.6400	-0.5807
47.5524	-315.6400	-0.5808
47.6524	-315.6400	-0.5794
47.7519	-315.6400	-0.5794
47.8522	-315.6400	-0.5775
47.9523	-315.6400	-0.5789
48.0516	-315.6400	-0.5794
48.1520	-315.6400	-0.5783
48.2528	-315.6400	-0.5784
48.3532	-315.6400	-0.5800
48.4536	-315.6400	-0.5775
48.5549	-315.6400	-0.5770
48.6550	-315.6400	-0.5747
48.7547	-315.6400	-0.5767
48.8547	-315.6400	-0.5758
48.9557	-315.6400	-0.5739
49.0574	-315.6400	-0.5759
49.1576	-315.6400	-0.5762
49.2579	-315.6400	-0.5794
49.3584	-315.6400	-0.5773
49.4586	-315.6400	-0.5764
49.5579	-315.6400	-0.5749
49.6579	-315.6400	-0.5753
49.7595	-315.6400	-0.5746
49.8604	-315.6400	-0.5765
49.9598	-315.6400	-0.5758
50.0597	-315.6400	-0.5763
50.1602	-315.6400	-0.5746
50.2602	-315.6400	-0.5772
50.3603	-315.6400	-0.5729
50.4598	-315.6400	-0.5728
50.5614	-315.6400	-0.5733
50.6608	-315.6400	-0.5746
50.7611	-315.6400	-0.5745
50.8609	-315.6400	-0.5726
50.9624	-315.6400	-0.5731
51.0629	-315.6400	-0.5734
51.1643	-315.6400	-0.5737
51.2640	-315.6400	-0.5709
51.3655	-315.6400	-0.5710
51.4652	-315.6400	-0.5705
51.5665	-315.6400	-0.5711
51.6658	-315.6400	-0.5704
51.7660	-315.6400	-0.5734
51.8661	-315.6400	-0.5734
51.9675	-315.6400	-0.5703
52.0689	-315.6400	-0.5701
52.1679	-315.6400	-0.5709
52.2697	-315.6400	-0.5698
52.3704	-315.6400	-0.5713
52.4709	-315.6400	-0.5707
52.5707	-315.6400	-0.5714
52.6725	-315.6400	-0.5715
52.7726	-315.6400	-0.5712
52.8721	-315.6400	-0.5702
52.9716	-315.6400	-0.5695
53.0717	-315.6400	-0.5697
53.1722	-315.6400	-0.5669
53.2727	-315.6400	-0.5668
53.3738	-315.6400	-0.5679
53.4738	-315.6400	-0.5681
53.5747	-315.6400	-0.5685
53.6755	-315.6400	-0.5660
53.7748	-315.6400	-0.5690
53.8748	-315.6400	-0.5683
53.9751	-315.6400	-0.5655
54.0756	-315.6400	-0.5674
54.1754	-315.6400	-0.5689
54.2754	-315.6400	-0.5676
54.3750	-315.6400	-0.5677
54.4756	-315.6400	-0.5697
54.5751	-315.6400	-0.5677
54.6749	-315.6400	-0.5677
54.7748	-315.6400	-0.5690
54.8752	-315.6400	-0.5671
54.9756	-315.6400	-0.5659
55.0757	-315.6400	-0.5645
55.1760	-315.6400	-0.5636
55.2761	-315.6400	-0.5622
55.3765	-315.6400	-0.5622
55.4763	-315.6400	-0.5638
55.5766	-315.6400	-0.5631
55.6762	-315.6400	-0.5664
55.7765	-315.6400	-0.5618
55.8763	-315.6400	-0.5612
55.9756	-315.6400	-0.5630
56.0763	-315.6400	-0.5641
56.1765	-315.6400	-0.5606
56.2770	-315.6400	-0.5617
56.3774	-315.6400	-0.5608
56.4778	-315.6400	-0.5613
56.5786	-315.6400	-0.5583
56.6777	-315.6400	-0.5583
56.7779	-315.6400	-0.5594
56.8777	-315.6400	-0.5544
56.9792	-315.6400	-0.5565
57.0789	-315.6400	-0.5579
57.1805	-315.6400	-0.5597
57.2805	-315.6400	-0.5589
57.3806	-315.6400	-0.5593
57.4801	-315.6400	-0.5606
57.5798	-315.6400	-0.5601
57.6799	-315.6400	-0.5568
57.7797	-315.6400	-0.5580
57.8815	-315.6400	-0.5574
57.9810	-315.6400	-0.5602
58.0817	-315.6400	-0.5578
58.1825	-315.6400	-0.5575
58.2821	-315.6400	-0.5577
58.3820	-315.6400	-0.5580
58.4828	-315.6400	-0.5576
58.5825	-315.6400	-0.5572
58.6821	-315.6400	-0.5580
58.7827	-315.6400	-0.5559
58.8837	-315.6400	-0.5540
58.9844	-315.6400	-0.5577
59.0853	-315.6400	-0.5558
59.1849	-315.6400	-0.5548
59.2857	-315.6400	-0.5555
59.3866	-315.6400	-0.5576
59.4867	-315.6400	-0.5553
59.5874	-315.6400	-0.5559
59.6879	-315.6400	-0.5558
59.7879	-315.6400	-0.5547
59.8893	-315.6400	-0.5548
59.9891	-315.6400	-0.5547
60.0898	-315.6400	-0.5555
60.1897	-315.6400	-0.5562
60.2906	-315.6400	-0.5543
60.3903	-315.6400	-0.5555
60.4903	-315.6400	-0.5547
60.5898	-315.6400	-0.5541
60.6897	-315.6400	-0.5551
60.7901	-315.6400	-0.5521
60.8898	-315.6400	-0.5557
60.9902	-315.6400	-0.5542
61.0900	-315.6400	-0.5564
61.1904	-315.6400	-0.5543
61.2903	-315.6400	-0.5528
61.3904	-315.6400	-0.5535
61.4900	-315.6400	-0.5522
61.5904	-315.6400	-0.5542
61.6907	-315.6400	-0.5556
61.7913	-315.6400	-0.5526
61.8908	-315.6400	-0.5553
61.9915	-315.6400	-0.5524
62.0926	-315.6400	-0.5527
62.1926	-315.6400	-0.5513
62.2927	-315.6400	-0.5523
62.3936	-315.6400	-0.5508
62.4932	-315.6400	-0.5546
62.5935	-315.6400	-0.5529
62.6932	-315.6400	-0.5509
62.7932	-315.6400	-0.5512
62.8944	-315.6400	-0.5498
62.9941	-315.6400	-0.5493
63.0938	-315.6400	-0.5492
63.1946	-315.6400	-0.5514
63.2947	-315.6400	-0.5506
63.3955	-315.6400	-0.5503
63.4948	-315.6400	-0.5509
63.5956	-315.6400	-0.5502
63.6955	-315.6400	-0.5504
63.7956	-315.6400	-0.5504
63.8950	-315.6400	-0.5481
63.9957	-315.6400	-0.5498
64.0965	-315.6400	-0.5498
64.1958	-315.6400	-0.5522
64.2976	-315.6400	-0.5483
64.3973	-315.6400	-0.5511
64.4970	-315.6400	-0.5487
64.5978	-315.6400	-0.5513
64.6986	-315.6400	-0.5471
64.7994	-315.6400	-0.5496
64.8997	-315.6400	-0.5456
64.9998	-315.6400	-0.5472
65.1003	-315.6400	-0.5481
65.2016	-315.6400	-0.5485
65.3016	-315.6400	-0.5499
65.4010	-315.6400	-0.5471
65.5010	-315.6400	-0.5476
65.6026	-315.6400	-0.5494
65.7023	-315.6400	-0.5499
65.8019	-315.6400	-0.5492
65.9019	-315.6400	-0.5480
66.0037	-315.6400	-0.5452
66.1033	-315.6400	-0.5453
66.2034	-315.6400	-0.5429
66.3049	-315.6400	-0.5441
66.4042	-315.6400	-0.5442
66.5043	-315.6400	-0.5457
66.6038	-315.6400	-0.5467
66.7041	-315.6400	-0.5473
66.8055	-315.6400	-0.5474
66.9050	-315.6400	-0.5461
67.0064	-315.6400	-0.5438
67.1061	-315.6400	-0.5434
67.2059	-315.6400	-0.5448
67.3062	-315.6400	-0.5440
67.4062	-315.6400	-0.5444
67.5062	-315.6400	-0.5447
67.6063	-315.6400	-0.5417
67.7062	-315.6400	-0.5425
67.8076	-315.6400	-0.5447
67.9078	-315.6400	-0.5454
68.0081	-315.6400	-0.5450
68.1079	-315.6400	-0.5467
68.2081	-315.6400	-0.5443
68.3079	-315.6400	-0.5466
68.4086	-315.6400	-0.5451
68.5079	-315.6400	-0.5420
68.6078	-315.6400	-0.5418
68.7081	-315.6400	-0.5415
68.8082	-315.6400	-0.5433
68.9080	-315.6400	-0.5427
69.0080	-315.6400	-0.5437
69.1081	-315.6400	-0.5415
69.2081	-315.6400	-0.5426
69.3080	-315.6400	-0.5412
69.4081	-315.6400	-0.5407
69.5095	-315.6400	-0.5404
69.6097	-315.6400	-0.5398
69.7088	-315.6400	-0.5412
69.8095	-315.6400	-0.5412
69.9089	-315.6400	-0.5405
70.0102	-315.6400	-0.5418
70.1104	-315.6400	-0.5428
70.2105	-315.6400	-0.5420
70.3104	-315.6400	-0.5424
70.4106	-315.6400	-0.5417
70.5105	-315.6400	-0.5411
70.6115	-315.6400	-0.5424
70.7117	-315.6400	-0.5426
70.8116	-315.6400	-0.5388
70.9114	-315.6400	-0.5395
71.0116	-315.6400	-0.5413
71.1115	-315.6400	-0.5416
71.2128	-315.6400	-0.5424
71.3119	-315.6400	-0.5414
71.4120	-315.6400	-0.5404
71.5121	-315.6400	-0.5389
71.6126	-315.6400	-0.5398
71.7118	-315.6400	-0.5393
71.8124	-315.6400	-0.5389
71.9131	-315.6400	-0.5386
72.0141	-315.6400	-0.5392
72.1138	-315.6400	-0.5401
72.2138	-315.6400	-0.5397
72.3144	-315.6400	-0.5411
72.4146	-315.6400	-0.5419
72.5168	-315.6400	-0.5417
72.6150	-315.6400	-0.5396
72.7165	-315.6400	-0.5397
72.8166	-315.6400	-0.5396
72.9168	-315.6400	-0.5359
73.0160	-315.6400	-0.5389
73.1175	-315.6400	-0.5400
73.2186	-315.6400	-0.5395
73.3183	-315.6400	-0.5404
73.4181	-315.6400	-0.5390
73.5197	-315.6400	-0.5396
73.6207	-315.6400	-0.5391
73.7204	-315.6400	-0.5390
73.8201	-315.6400	-0.5393
73.9215	-315.6400	-0.5387
74.0217	-315.6400	-0.5376
74.1218	-315.6400	-0.5395
74.2228	-315.6400	-0.5381
74.3236	-315.6400	-0.5398
74.4237	-315.6400	-0.5395
74.5237	-315.6400	-0.5392
74.6231	-315.6400	-0.5391
74.7229	-315.6400	-0.5393
74.8240	-315.6400	-0.5371
74.9247	-315.6400	-0.5387
75.0247	-315.6400	-0.5409
75.1246	-315.6400	-0.5395
75.2248	-315.6400	-0.5393
75.3255	-315.6400	-0.5374
75.4256	-315.6400	-0.5376
75.5254	-315.6400	-0.5372
75.6250	-315.6400	-0.5361
75.7258	-315.6400	-0.5373
75.8258	-315.6400	-0.5382
75.9258	-315.6400	-0.5380
76.0263	-315.6400	-0.5367
76.1259	-315.6400	-0.5366
76.2268	-315.6400	-0.5356
76.3262	-315.6400	-0.5358
76.4264	-315.6400	-0.5364
76.5263	-315.6400	-0.5355
76.6260	-315.6400	-0.5344
76.7269	-315.6400	-0.5357
76.8274	-315.6400	-0.5361
76.9273	-315.6400	-0.5377
77.0270	-315.6400	-0.5371
77.1275	-315.6400	-0.5350
77.2277	-315.6400	-0.5341
77.3270	-315.6400	-0.5335
77.4277	-315.6400	-0.5350
77.5269	-315.6400	-0.5365
77.6279	-315.6400	-0.5332
77.7281	-315.6400	-0.5339
77.8297	-315.6400	-0.5325
77.9293	-315.6400	-0.5325
78.0296	-315.6400	-0.5331
78.1298	-315.6400	-0.5321
78.2292	-315.6400	-0.5327
78.3303	-315.6400	-0.5338
78.4304	-315.6400	-0.5351
78.5302	-315.6400	-0.5334
78.6304	-315.6400	-0.5293
78.7303	-315.6400	-0.5294
78.8299	-315.6400	-0.5322
78.9307	-315.6400	-0.5325
79.0306	-315.6400	-0.5315
79.1311	-315.6400	-0.5317
79.2309	-315.6400	-0.5333
79.3337	-315.6400	-0.5307
79.4322	-315.6400	-0.5296
79.5320	-315.6400	-0.5282
79.6319	-315.6400	-0.5298
79.7338	-315.6400	-0.5311
79.8338	-315.6400	-0.5295
79.9332	-315.6400	-0.5287
80.0348	-315.6400	-0.5281
80.1346	-315.6400	-0.5285
80.2345	-315.6400	-0.5294
80.3356	-315.6400	-0.5317
80.4349	-315.6400	-0.5304
80.5356	-315.6400	-0.5284
80.6349	-315.6400	-0.5266
80.7367	-315.6400	-0.5282
80.8360	-315.6400	-0.5301
80.9378	-315.6400	-0.5303
81.0386	-315.6400	-0.5268
81.1407	-315.6400	-0.5275
81.2406	-315.6400	-0.5271
81.3403	-315.6400	-0.5277
81.4406	-315.6400	-0.5288
81.5404	-315.6400	-0.5278
81.6403	-315.6400	-0.5249
81.7402	-315.6400	-0.5245
81.8417	-315.6400	-0.5275
81.9417	-315.6400	-0.5258
82.0424	-315.6400	-0.5284
82.1422	-315.6400	-0.5268
82.2426	-315.6400	-0.5266
82.3430	-315.6400	-0.5242
82.4436	-315.6400	-0.5270
82.5443	-315.6400	-0.5278
82.6448	-315.6400	-0.5286
82.7446	-315.6400	-0.5263
82.8440	-315.6400	-0.5265
82.9449	-315.6400	-0.5278
83.0444	-315.6400	-0.5287
83.1450	-315.6400	-0.5297
83.2459	-315.6400	-0.5281
83.3450	-315.6400	-0.5250
83.4459	-315.6400	-0.5253
83.5452	-315.6400	-0.5275
83.6451	-315.6400	-0.5255
83.7453	-315.6400	-0.5258
83.8460	-315.6400	-0.5265
83.9467	-315.6400	-0.5234
84.0468	-315.6400	-0.5231
84.1468	-315.6400	-0.5252
84.2464	-315.6400	-0.5260
84.3462	-315.6400	-0.5278
84.4459	-315.6400	-0.5254
84.5474	-315.6400	-0.5246
84.6476	-315.6400	-0.5271
84.7477	-315.6400	-0.5262
84.8478	-315.6400	-0.5264
84.9474	-315.6400	-0.5249
85.0478	-315.6400	-0.5252
85.1473	-315.6400	-0.5219
85.2472	-315.6400	-0.5248
85.3473	-315.6400	-0.5240
85.4478	-315.6400	-0.5235
85.5481	-315.6400	-0.5230
85.6487	-315.6400	-0.5241
85.7483	-315.6400	-0.5238
85.8487	-315.6400	-0.5234
85.9480	-315.6400	-0.5247
86.0482	-315.6400	-0.5250
86.1488	-315.6400	-0.5246
86.2480	-315.6400	-0.5239
86.3480	-315.6400	-0.5239
86.4499	-315.6400	-0.5232
86.5503	-315.6400	-0.5227
86.6506	-315.6400	-0.5230
86.7500	-315.6400	-0.5214
86.8519	-315.6400	-0.5241
86.9518	-315.6400	-0.5241
87.0512	-315.6400	-0.5224
87.1510	-315.6400	-0.5231
87.2516	-315.6400	-0.5221
87.3519	-315.6400	-0.5221
87.4514	-315.6400	-0.5226
87.5513	-315.6400	-0.5228
87.6521	-315.6400	-0.5227
87.7521	-315.6400	-0.5228
87.8535	-315.6400	-0.5224
87.9542	-315.6400	-0.5227
88.0530	-315.6400	-0.5206
88.1536	-315.6400	-0.5216
88.2538	-315.6400	-0.5223
88.3530	-315.6400	-0.5224
88.4540	-315.6400	-0.5215
88.5549	-315.6400	-0.5206
88.6557	-315.6400	-0.5192
88.7568	-315.6400	-0.5214
88.8563	-315.6400	-0.5199
88.9567	-315.6400	-0.5204
89.0563	-315.6400	-0.5204
89.1569	-315.6400	-0.5195
89.2563	-315.6400	-0.5201
89.3568	-315.6400	-0.5201
89.4565	-315.6400	-0.5217
89.5579	-315.6400	-0.5208
89.6573	-315.6400	-0.5199
89.7586	-315.6400	-0.5223
89.8583	-315.6400	-0.5191
89.9582	-315.6400	-0.5197
90.0583	-315.6400	-0.5185
90.1580	-315.6400	-0.5178
90.2581	-315.6400	-0.5187
90.3587	-315.6400	-0.5201
90.4583	-315.6400	-0.5190
90.5583	-315.6400	-0.5170
90.6583	-315.6400	-0.5210
90.7598	-315.6400	-0.5181
90.8598	-315.6400	-0.5202
90.9593	-315.6400	-0.5166
91.0597	-315.6400	-0.5182
91.1599	-315.6400	-0.5181
91.2599	-315.6400	-0.5214
91.3596	-315.6400	-0.5166
91.4593	-315.6400	-0.5181
91.5600	-315.6400	-0.5204
91.6604	-315.6400	-0.5199
91.7606	-315.6400	-0.5175
91.8606	-315.6400	-0.5181
91.9600	-315.6400	-0.5184
92.0603	-315.6400	-0.5183
92.1610	-315.6400	-0.5195
92.2608	-315.6400	-0.5198
92.3619	-315.6400	-0.5185
92.4614	-315.6400	-0.5193
92.5613	-315.6400	-0.5168
92.6625	-315.6400	-0.5181
92.7628	-315.6400	-0.5173
92.8623	-315.6400	-0.5159
92.9637	-315.6400	-0.5141
93.0650	-315.6400	-0.5164
93.1654	-315.6400	-0.5182
93.2654	-315.6400	-0.5158
93.3651	-315.6400	-0.5190
93.4657	-315.6400	-0.5163
93.5659	-315.6400	-0.5162
93.6652	-315.6400	-0.5166
93.7670	-315.6400	-0.5158
93.8668	-315.6400	-0.5165
93.9660	-315.6400	-0.5170
94.0671	-315.6400	-0.5162
94.1680	-315.6400	-0.5158
94.2681	-315.6400	-0.5166
94.3689	-315.6400	-0.5157
94.4698	-315.6400	-0.5156
94.5705	-315.6400	-0.5158
94.6717	-315.6400	-0.5163
94.7717	-315.6400	-0.5175
94.8720	-315.6400	-0.5168
94.9717	-315.6400	-0.5168
95.0729	-315.6400	-0.5149
95.1726	-315.6400	-0.5153
95.2722	-315.6400	-0.5135
95.3720	-315.6400	-0.5162
95.4720	-315.6400	-0.5184
95.5731	-315.6400	-0.5188
95.6741	-315.6400	-0.5166
95.7758	-315.6400	-0.5162
95.8754	-315.6400	-0.5152
95.9769	-315.6400	-0.5163
96.0778	-315.6400	-0.5159
96.1787	-315.6400	-0.5158
96.2784	-315.6400	-0.5162
96.3784	-315.6400	-0.5158
96.4798	-315.6400	-0.5156
96.5799	-315.6400	-0.5125
96.6794	-315.6400	-0.5128
96.7796	-315.6400	-0.5133
96.8799	-315.6400	-0.5136
96.9804	-315.6400	-0.5142
97.0807	-315.6400	-0.5145
97.1800	-315.6400	-0.5131
97.2803	-315.6400	-0.5129
97.3808	-315.6400	-0.5136
97.4804	-315.6400	-0.5153
97.5804	-315.6400	-0.5145
97.6807	-315.6400	-0.5135
97.7804	-315.6400	-0.5159
97.8807	-315.6400	-0.5127
97.9807	-315.6400	-0.5129
98.0808	-315.6400	-0.5128
98.1805	-315.6400	-0.5126
98.2805	-315.6400	-0.5124
98.3806	-315.6400	-0.5139
98.4806	-315.6400	-0.5113
98.5805	-315.6400	-0.5122
98.6811	-315.6400	-0.5127
98.7814	-315.6400	-0.5112
98.8811	-315.6400	-0.5118
98.9818	-315.6400	-0.5134
99.0813	-315.6400	-0.5115
99.1810	-315.6400	-0.5136
99.2820	-315.6400	-0.5134
99.3819	-315.6400	-0.5132
99.4811	-315.6400	-0.5102
99.5816	-315.6400	-0.5104
99.6817	-315.6400	-0.5097
99.7828	-315.6400	-0.5092
99.8840	-315.6400	-0.5120
99.9831	-315.6400	-0.5120
100.0859	-315.6400	-0.5123
100.1849	-315.6400	-0.5103
100.2843	-315.6400	-0.5092
100.3858	-315.6400	-0.5125
100.4855	-315.6400	-0.5114
100.5859	-315.6400	-0.5141
100.6859	-315.6400	-0.5137
100.7853	-315.6400	-0.5114
100.8859	-315.6400	-0.5123
100.9868	-315.6400	-0.5114
101.0881	-315.6400	-0.5107
101.1900	-315.6400	-0.5114
101.2890	-315.6400	-0.5135
101.3881	-315.6400	-0.5083
101.4881	-315.6400	-0.5111
101.5884	-315.6400	-0.5100
101.6890	-315.6400	-0.5094
101.7881	-315.6400	-0.5084
101.8888	-315.6400	-0.5088
101.9897	-315.6400	-0.5095
102.0899	-315.6400	-0.5100
102.1893	-315.6400	-0.5103
102.2911	-315.6400	-0.5100
102.3915	-315.6400	-0.5092
102.4918	-315.6400	-0.5095
102.5912	-315.6400	-0.5084
102.6925	-315.6400	-0.5103
102.7929	-315.6400	-0.5103
102.8936	-315.6400	-0.5103
102.9932	-315.6400	-0.5099
103.0940	-315.6400	-0.5076
103.1932	-315.6400	-0.5067
103.2948	-315.6400	-0.5052
103.3949	-315.6400	-0.5062
103.4947	-315.6400	-0.5067
103.5944	-315.6400	-0.5083
103.6959	-315.6400	-0.5097
103.7953	-315.6400	-0.5089
103.8960	-315.6400	-0.5078
103.9957	-315.6400	-0.5096
104.0969	-315.6400	-0.5062
104.1962	-315.6400	-0.5057
104.2967	-315.6400	-0.5107
104.3970	-315.6400	-0.5076
104.4970	-315.6400	-0.5120
104.5968	-315.6400	-0.5094
104.6967	-315.6400	-0.5101
104.7968	-315.6400	-0.5080
104.8967	-315.6400	-0.5099
104.9968	-315.6400	-0.5097
105.0962	-315.6400	-0.5076
105.1974	-315.6400	-0.5089
105.2975	-315.6400	-0.5072
105.3982	-315.6400	-0.5070
105.4985	-315.6400	-0.5104
105.5986	-315.6400	-0.5070
105.6983	-315.6400	-0.5088
105.7985	-315.6400	-0.5092
105.8989	-315.6400	-0.5076
105.9991	-315.6400	-0.5089
106.0985	-315.6400	-0.5073
106.1991	-315.6400	-0.5094
106.3001	-315.6400	-0.5072
106.3998	-315.6400	-0.5069
106.5006	-315.6400	-0.5091
106.6019	-315.6400	-0.5071
106.7022	-315.6400	-0.5099
106.8026	-315.6400	-0.5089
106.9028	-315.6400	-0.5079
107.0023	-315.6400	-0.5085
107.1030	-315.6400	-0.5066
107.2036	-315.6400	-0.5072
107.3043	-315.6400	-0.5050
107.4042	-315.6400	-0.5069
107.5042	-315.6400	-0.5071
107.6049	-315.6400	-0.5069
107.7053	-315.6400	-0.5050
107.8061	-315.6400	-0.5094
107.9054	-315.6400	-0.5092
108.0060	-315.6400	-0.5095
108.1060	-315.6400	-0.5070
108.2061	-315.6400	-0.5102
108.3056	-315.6400	-0.5080
108.4060	-315.6400	-0.5076
108.5059	-315.6400	-0.5089
108.6070	-315.6400	-0.5060
108.7070	-315.6400	-0.5055
108.8062	-315.6400	-0.5045
108.9076	-315.6400	-0.5072
109.0088	-315.6400	-0.5069
109.1085	-315.6400	-0.5054
109.2090	-315.6400	-0.5056
109.3081	-315.6400	-0.5055
109.4085	-315.6400	-0.5056
109.5090	-315.6400	-0.5047
109.6085	-315.6400	-0.5066
109.7082	-315.6400	-0.5073
109.8090	-315.6400	-0.5066
109.9095	-315.6400	-0.5080
110.0093	-315.6400	-0.5066
110.1092	-315.6400	-0.5066
110.2092	-315.6400	-0.5073
110.3095	-315.6400	-0.5062
110.4106	-315.6400	-0.5069
110.5102	-315.6400	-0.5088
110.6108	-315.6400	-0.5081
110.7108	-315.6400	-0.5080
110.8105	-315.6400	-0.5083
110.9115	-315.6400	-0.5062
111.0112	-315.6400	-0.5081
111.1119	-315.6400	-0.5059
111.2115	-315.6400	-0.5058
111.3118	-315.6400	-0.5036
111.4112	-315.6400	-0.5044
111.5115	-315.6400	-0.5043
111.6117	-315.6400	-0.5024
111.7115	-315.6400	-0.5044
111.8113	-315.6400	-0.5044
111.9127	-315.6400	-0.5020
112.0122	-315.6400	-0.5048
112.1129	-315.6400	-0.5036
112.2127	-315.6400	-0.5054
112.3126	-315.6400	-0.5035
112.4130	-315.6400	-0.5047
112.5130	-315.6400	-0.5039
112.6128	-315.6400	-0.5066
112.7135	-315.6400	-0.5041
112.8149	-315.6400	-0.5026
112.9147	-315.6400	-0.5034
113.0147	-315.6400	-0.5044
113.1145	-315.6400	-0.5072
113.2147	-315.6400	-0.5050
113.3147	-315.6400	-0.5055
113.4149	-315.6400	-0.5054
113.5149	-315.6400	-0.5050
113.6151	-315.6400	-0.5060
113.7159	-315.6400	-0.5052
113.8161	-315.6400	-0.5036
113.9165	-315.6400	-0.5052
114.0166	-315.6400	-0.5055
114.1180	-315.6400	-0.5046
114.2173	-315.6400	-0.5028
114.3191	-315.6400	-0.5028
114.4190	-315.6400	-0.5029
114.5185	-315.6400	-0.5041
114.6192	-315.6400	-0.5044
114.7205	-315.6400	-0.5048
114.8209	-315.6400	-0.5053
114.9207	-315.6400	-0.5060
115.0209	-315.6400	-0.5045
115.1220	-315.6400	-0.5041
115.2230	-315.6400	-0.5058
115.3225	-315.6400	-0.5032
115.4225	-315.6400	-0.5016
115.5236	-315.6400	-0.5024
115.6250	-315.6400	-0.5027
115.7243	-315.6400	-0.5018
115.8245	-315.6400	-0.5006
115.9257	-315.6400	-0.5018
116.0262	-315.6400	-0.5045
116.1269	-315.6400	-0.5035
116.2268	-315.6400	-0.5041
116.3265	-315.6400	-0.5044
116.4264	-315.6400	-0.5055
116.5269	-315.6400	-0.5025
116.6266	-315.6400	-0.5024
116.7267	-315.6400	-0.5032
116.8267	-315.6400	-0.5036
116.9280	-315.6400	-0.5028
117.0277	-315.6400	-0.5037
117.1272	-315.6400	-0.5017
117.2279	-315.6400	-0.5023
117.3292	-315.6400	-0.5027
117.4293	-315.6400	-0.5038
117.5296	-315.6400	-0.5011
117.6296	-315.6400	-0.5010
117.7310	-315.6400	-0.5011
117.8310	-315.6400	-0.5020
117.9308	-315.6400	-0.5015
118.0309	-315.6400	-0.5028
118.1310	-315.6400	-0.5008
118.2308	-315.6400	-0.5006
118.3306	-315.6400	-0.5021
118.4308	-315.6400	-0.5003
118.5310	-315.6400	-0.5000
118.6310	-315.6400	-0.4996
118.7308	-315.6400	-0.5012
118.8310	-315.6400	-0.4990
118.9308	-315.6400	-0.4969
119.0308	-315.6400	-0.4975
119.1309	-315.6400	-0.4994
119.2310	-315.6400	-0.4983
119.3306	-315.6400	-0.4988
119.4310	-315.6400	-0.5010
119.5307	-315.6400	-0.4998
119.6310	-315.6400	-0.5000
119.7307	-315.6400	-0.4979
119.8313	-315.6400	-0.4997
119.9322	-315.6400	-0.4992
120.0313	-315.6400	-0.4971
120.1322	-315.6400	-0.4996
120.2315	-315.6400	-0.4982
120.3314	-315.6400	-0.4971
120.4313	-315.6400	-0.4986
120.5314	-315.6400	-0.5007
120.6322	-315.6400	-0.4977
120.7313	-315.6400	-0.4997
120.8322	-315.6400	-0.4986
120.9324	-315.6400	-0.4969
121.0326	-315.6400	-0.4962
121.1328	-315.6400	-0.4983
121.2341	-315.6400	-0.4968
121.3341	-315.6400	-0.4969
121.4341	-315.6400	-0.4955
121.5341	-315.6400	-0.4980
121.6338	-315.6400	-0.4982
121.7336	-315.6400	-0.4992
121.8340	-315.6400	-0.4982
121.9350	-315.6400	-0.4958
122.0361	-315.6400	-0.4971
122.1353	-315.6400	-0.4974
122.2354	-315.6400	-0.4982
122.3369	-315.6400	-0.4943
122.4380	-315.6400	-0.4980
122.5391	-315.6400	-0.4956
122.6389	-315.6400	-0.4983
122.7401	-315.6400	-0.4974
122.8398	-315.6400	-0.4978
122.9401	-315.6400	-0.4974
123.0411	-315.6400	-0.4969
123.1411	-315.6400	-0.4957
123.2409	-315.6400	-0.4985
123.3405	-315.6400	-0.4985
123.4423	-315.6400	-0.4977
123.5439	-315.6400	-0.4969
123.6440	-315.6400	-0.4972
123.7437	-315.6400	-0.4988
123.8461	-315.6400	-0.4973
123.9460	-315.6400	-0.4968
124.0465	-315.6400	-0.4962
124.1468	-315.6400	-0.4959
124.2463	-315.6400	-0.4980
124.3463	-315.6400	-0.4973
124.4479	-315.6400	-0.4956
124.5478	-315.6400	-0.4964
124.6480	-315.6400	-0.4965
124.7478	-315.6400	-0.4961
124.8480	-315.6400	-0.4963
124.9475	-315.6400	-0.4957
125.0481	-315.6400	-0.4960
125.1487	-315.6400	-0.4972
125.2500	-315.6400	-0.4986
125.3508	-315.6400	-0.4968
125.4510	-315.6400	-0.4956
125.5503	-315.6400	-0.4950
125.6512	-315.6400	-0.4992
125.7509	-315.6400	-0.4969
125.8509	-315.6400	-0.4955
125.9503	-315.6400	-0.4953
126.0511	-315.6400	-0.4950
126.1510	-315.6400	-0.4955
126.2515	-315.6400	-0.4948
126.3521	-315.6400	-0.4916
126.4521	-315.6400	-0.4938
126.5523	-315.6400	-0.4955
126.6534	-315.6400	-0.4937
126.7541	-315.6400	-0.4954
126.8539	-315.6400	-0.4970
126.9536	-315.6400	-0.4974
127.0533	-315.6400	-0.4962
127.1535	-315.6400	-0.4969
127.2545	-315.6400	-0.4973
127.3551	-315.6400	-0.4983
127.4555	-315.6400	-0.4969
127.5555	-315.6400	-0.4945
127.6558	-315.6400	-0.4952
127.7559	-315.6400	-0.4961
127.8554	-315.6400	-0.4944
127.9556	-315.6400	-0.4958
128.0564	-315.6400	-0.4946
128.1567	-315.6400	-0.4937
128.2567	-315.6400	-0.4936
128.3569	-315.6400	-0.4928
128.4574	-315.6400	-0.4932
128.5583	-315.6400	-0.4931
128.6584	-315.6400	-0.4936
128.7585	-315.6400	-0.4923
128.8588	-315.6400	-0.4935
128.9589	-315.6400	-0.4919
129.0587	-315.6400	-0.4951
129.1587	-315.6400	-0.4948
129.2603	-315.6400	-0.4926
129.3601	-315.6400	-0.4925
129.4594	-315.6400	-0.4957
129.5605	-315.6400	-0.4942
129.6609	-315.6400	-0.4933
129.7605	-315.6400	-0.4950
129.8614	-315.6400	-0.4926
129.9605	-315.6400	-0.4957
130.0609	-315.6400	-0.4926
130.1609	-315.6400	-0.4953
130.2607	-315.6400	-0.4930
130.3625	-315.6400	-0.4923
130.4627	-315.6400	-0.4945
130.5629	-315.6400	-0.4943
130.6634	-315.6400	-0.4923
130.7647	-315.6400	-0.4941
130.8647	-315.6400	-0.4898
130.9663	-315.6400	-0.4933
131.0665	-315.6400	-0.4940
131.1672	-315.6400	-0.4944
131.2666	-315.6400	-0.4918
131.3674	-315.6400	-0.4913
131.4679	-315.6400	-0.4936
131.5691	-315.6400	-0.4907
131.6690	-315.6400	-0.4907
131.7687	-315.6400	-0.4931
131.8684	-315.6400	-0.4924
131.9692	-315.6400	-0.4923
132.0702	-315.6400	-0.4926
132.1698	-315.6400	-0.4919
132.2695	-315.6400	-0.4927
132.3713	-315.6400	-0.4881
132.4708	-315.6400	-0.4918
132.5710	-315.6400	-0.4944
132.6719	-315.6400	-0.4949
132.7731	-315.6400	-0.4922
132.8733	-315.6400	-0.4923
132.9725	-315.6400	-0.4910
133.0725	-315.6400	-0.4893
133.1725	-315.6400	-0.4887
133.2734	-315.6400	-0.4887
133.3750	-315.6400	-0.4899
133.4755	-315.6400	-0.4893
133.5756	-315.6400	-0.4864
133.6759	-315.6400	-0.4884
133.7761	-315.6400	-0.4898
133.8760	-315.6400	-0.4905
133.9757	-315.6400	-0.4879
134.0756	-315.6400	-0.4887
134.1771	-315.6400	-0.4886
134.2772	-315.6400	-0.4902
134.3768	-315.6400	-0.4904
134.4768	-315.6400	-0.4913
134.5775	-315.6400	-0.4888
134.6782	-315.6400	-0.4899
134.7783	-315.6400	-0.4901
134.8791	-315.6400	-0.4892
134.9787	-315.6400	-0.4883
135.0795	-315.6400	-0.4894
135.1802	-315.6400	-0.4879
135.2805	-315.6400	-0.4885
135.3810	-315.6400	-0.4891
135.4808	-315.6400	-0.4890
135.5809	-315.6400	-0.4881
135.6805	-315.6400	-0.4913
135.7811	-315.6400	-0.4928
135.8809	-315.6400	-0.4906
135.9810	-315.6400	-0.4884
136.0810	-315.6400	-0.4879
136.1812	-315.6400	-0.4892
136.2812	-315.6400	-0.4902
136.3809	-315.6400	-0.4917
136.4812	-315.6400	-0.4903
136.5808	-315.6400	-0.4895
136.6812	-315.6400	-0.4912
136.7810	-315.6400	-0.4903
136.8812	-315.6400	-0.4901
136.9809	-315.6400	-0.4907
137.0805	-315.6400	-0.4905
137.1824	-315.6400	-0.4899
137.2836	-315.6400	-0.4902
137.3842	-315.6400	-0.4891
137.4839	-315.6400	-0.4885
137.5836	-315.6400	-0.4877
137.6853	-315.6400	-0.4871
137.7860	-315.6400	-0.4899
137.8855	-315.6400	-0.4884
137.9863	-315.6400	-0.4887
138.0856	-315.6400	-0.4868
138.1864	-315.6400	-0.4882
138.2855	-315.6400	-0.4865
138.3858	-315.6400	-0.4867
138.4873	-315.6400	-0.4878
138.5864	-315.6400	-0.4863
138.6882	-315.6400	-0.4880
138.7887	-315.6400	-0.4883
138.8893	-315.6400	-0.4899
138.9887	-315.6400	-0.4893
139.0888	-315.6400	-0.4912
139.1888	-315.6400	-0.4894
139.2892	-315.6400	-0.4914
139.3884	-315.6400	-0.4882
139.4893	-315.6400	-0.4906
139.5889	-315.6400	-0.4897
139.6904	-315.6400	-0.4889
139.7905	-315.6400	-0.4874
139.8916	-315.6400	-0.4884
139.9916	-315.6400	-0.4886
140.0927	-315.6400	-0.4864
140.1924	-315.6400	-0.4869
140.2932	-315.6400	-0.4878
140.3934	-315.6400	-0.4888
140.4931	-315.6400	-0.4867
140.5926	-315.6400	-0.4883
140.6927	-315.6400	-0.4880
140.7929	-315.6400	-0.4877
140.8943	-315.6400	-0.4885
140.9952	-315.6400	-0.4891
141.0954	-315.6400	-0.4886
141.1953	-315.6400	-0.4892
141.2962	-315.6400	-0.4887
141.3970	-315.6400	-0.4904
141.4971	-315.6400	-0.4902
141.5970	-315.6400	-0.4873
141.6970	-315.6400	-0.4873
141.7970	-315.6400	-0.4904
141.8967	-315.6400	-0.4873
141.9972	-315.6400	-0.4873
142.0970	-315.6400	-0.4847
142.1967	-315.6400	-0.4880
142.2985	-315.6400	-0.4860
142.3992	-315.6400	-0.4869
142.4988	-315.6400	-0.4882
142.5988	-315.6400	-0.4882
142.6988	-315.6400	-0.4868
142.7987	-315.6400	-0.4875
142.9004	-315.6400	-0.4887
143.0012	-315.6400	-0.4881
143.1005	-315.6400	-0.4859
143.2008	-315.6400	-0.4887
143.3013	-315.6400	-0.4870
143.4012	-315.6400	-0.4895
143.5011	-315.6400	-0.4881
143.6018	-315.6400	-0.4873
143.7024	-315.6400	-0.4903
143.8016	-315.6400	-0.4875
143.9027	-315.6400	-0.4895
144.0041	-315.6400	-0.4874
144.1039	-315.6400	-0.4900
144.2040	-315.6400	-0.4881
144.3044	-315.6400	-0.4888
144.4043	-315.6400	-0.4903
144.5043	-315.6400	-0.4870
144.6046	-315.6400	-0.4864
144.7056	-315.6400	-0.4840
144.8066	-315.6400	-0.4871
144.9072	-315.6400	-0.4863
145.0074	-315.6400	-0.4870
145.1074	-315.6400	-0.4849
145.2074	-315.6400	-0.4873
145.3072	-315.6400	-0.4858
145.4066	-315.6400	-0.4860
145.5065	-315.6400	-0.4849
145.6072	-315.6400	-0.4865
145.7073	-315.6400	-0.4891
145.8070	-315.6400	-0.4868
145.9078	-315.6400	-0.4867
146.0083	-315.6400	-0.4863
146.1086	-315.6400	-0.4878
146.2094	-315.6400	-0.4859
146.3090	-315.6400	-0.4891
146.4094	-315.6400	-0.4888
146.5096	-315.6400	-0.4876
146.6113	-315.6400	-0.4855
146.7118	-315.6400	-0.4850
146.8124	-315.6400	-0.4854
146.9115	-315.6400	-0.4854
147.0122	-315.6400	-0.4831
147.1121	-315.6400	-0.4871
147.2125	-315.6400	-0.4851
147.3122	-315.6400	-0.4855
147.4123	-315.6400	-0.4849
147.5123	-315.6400	-0.4872
147.6130	-315.6400	-0.4871
147.7128	-315.6400	-0.4872
147.8132	-315.6400	-0.4881
147.9130	-315.6400	-0.4872
148.0132	-315.6400	-0.4872
148.1144	-315.6400	-0.4886
148.2141	-315.6400	-0.4879
148.3138	-315.6400	-0.4891
148.4151	-315.6400	-0.4885
148.5146	-315.6400	-0.4871
148.6147	-315.6400	-0.4895
148.7147	-315.6400	-0.4884
148.8162	-315.6400	-0.4867
148.9174	-315.6400	-0.4855
149.0170	-315.6400	-0.4842
149.1173	-315.6400	-0.4848
149.2170	-315.6400	-0.4863
149.3169	-315.6400	-0.4841
149.4170	-315.6400	-0.4854
149.5183	-315.6400	-0.4840
149.6183	-315.6400	-0.4845
149.7180	-315.6400	-0.4847
149.8180	-315.6400	-0.4845
149.9183	-315.6400	-0.4844
150.0187	-315.6400	-0.4848
150.1188	-315.6400	-0.4863
150.2203	-315.6400	-0.4869
150.3201	-315.6400	-0.4859
150.4202	-315.6400	-0.4836
150.5215	-315.6400	-0.4845
150.6209	-315.6400	-0.4860
150.7210	-315.6400	-0.4871
150.8213	-315.6400	-0.4846
150.9215	-315.6400	-0.4840
151.0222	-315.6400	-0.4842
151.1220	-315.6400	-0.4829
151.2220	-315.6400	-0.4830
151.3220	-315.6400	-0.4843
151.4222	-315.6400	-0.4844
151.5223	-315.6400	-0.4840
151.6227	-315.6400	-0.4839
151.7227	-315.6400	-0.4846
151.8232	-315.6400	-0.4849
151.9226	-315.6400	-0.4840
152.0239	-315.6400	-0.4839
152.1245	-315.6400	-0.4840
152.2241	-315.6400	-0.4865
152.3245	-315.6400	-0.4853
152.4244	-315.6400	-0.4845
152.5246	-315.6400	-0.4848
152.6252	-315.6400	-0.4840
152.7253	-315.6400	-0.4852
152.8251	-315.6400	-0.4822
152.9250	-315.6400	-0.4812
153.0250	-315.6400	-0.4823
153.1264	-315.6400	-0.4823
153.2265	-315.6400	-0.4823
153.3266	-315.6400	-0.4806
153.4268	-315.6400	-0.4800
153.5285	-315.6400	-0.4813
153.6288	-315.6400	-0.4803
153.7288	-315.6400	-0.4826
153.8297	-315.6400	-0.4826
153.9302	-315.6400	-0.4808
154.0305	-315.6400	-0.4807
154.1304	-315.6400	-0.4799
154.2302	-315.6400	-0.4815
154.3309	-315.6400	-0.4815
154.4306	-315.6400	-0.4808
154.5324	-315.6400	-0.4822
154.6319	-315.6400	-0.4828
154.7325	-315.6400	-0.4830
154.8316	-315.6400	-0.4817
154.9317	-315.6400	-0.4809
155.0328	-315.6400	-0.4824
155.1343	-315.6400	-0.4815
155.2340	-315.6400	-0.4837
155.3352	-315.6400	-0.4831
155.4353	-315.6400	-0.4818
155.5351	-315.6400	-0.4810
155.6364	-315.6400	-0.4835
155.7364	-315.6400	-0.4820
155.8360	-315.6400	-0.4824
155.9359	-315.6400	-0.4832
156.0364	-315.6400	-0.4832
156.1361	-315.6400	-0.4827
156.2359	-315.6400	-0.4811
156.3357	-315.6400	-0.4800
156.4356	-315.6400	-0.4807
156.5366	-315.6400	-0.4822
156.6384	-315.6400	-0.4798
156.7391	-315.6400	-0.4814
156.8389	-315.6400	-0.4821
156.9389	-315.6400	-0.4803
157.0394	-315.6400	-0.4804
157.1390	-315.6400	-0.4808
157.2387	-315.6400	-0.4807
157.3389	-315.6400	-0.4793
157.4403	-315.6400	-0.4815
157.5405	-315.6400	-0.4822
157.6399	-315.6400	-0.4804
157.7402	-315.6400	-0.4797
157.8397	-315.6400	-0.4805
157.9414	-315.6400	-0.4814
158.0414	-315.6400	-0.4800
158.1409	-315.6400	-0.4786
158.2409	-315.6400	-0.4781
158.3412	-315.6400	-0.4793
158.4421	-315.6400	-0.4785
158.5424	-315.6400	-0.4785
158.6416	-315.6400	-0.4808
158.7417	-315.6400	-0.4812
158.8432	-315.6400	-0.4787
158.9430	-315.6400	-0.4811
159.0435	-315.6400	-0.4805
159.1437	-315.6400	-0.4815
159.2445	-315.6400	-0.4797
159.3449	-315.6400	-0.4803
159.4454	-315.6400	-0.4813
159.5453	-315.6400	-0.4791
159.6457	-315.6400	-0.4816
159.7464	-315.6400	-0.4801
159.8461	-315.6400	-0.4803
159.9461	-315.6400	-0.4784
160.0474	-315.6400	-0.4785
160.1474	-315.6400	-0.4776
160.2472	-315.6400	-0.4791
160.3475	-315.6400	-0.4786
160.4475	-315.6400	-0.4803
160.5473	-315.6400	-0.4770
160.6477	-315.6400	-0.4793
160.7485	-315.6400	-0.4807
160.8480	-315.6400	-0.4801
160.9479	-315.6400	-0.4811
161.0479	-315.6400	-0.4821
161.1484	-315.6400	-0.4810
161.2484	-315.6400	-0.4812
161.3501	-315.6400	-0.4802
161.4514	-315.6400	-0.4786
161.5517	-315.6400	-0.4812
161.6523	-315.6400	-0.4794
161.7526	-315.6400	-0.4788
161.8527	-315.6400	-0.4760
161.9527	-315.6400	-0.4770
162.0534	-315.6400	-0.4778
162.1541	-315.6400	-0.4789
162.2537	-315.6400	-0.4783
162.3556	-315.6400	-0.4789
162.4556	-315.6400	-0.4773
162.5548	-315.6400	-0.4809
162.6550	-315.6400	-0.4782
162.7559	-315.6400	-0.4790
162.8574	-315.6400	-0.4790
162.9575	-315.6400	-0.4798
163.0584	-315.6400	-0.4816
163.1586	-315.6400	-0.4790
163.2592	-315.6400	-0.4777
163.3592	-315.6400	-0.4778
163.4593	-315.6400	-0.4772
163.5596	-315.6400	-0.4787
163.6589	-315.6400	-0.4773
163.7589	-315.6400	-0.4778
163.8602	-315.6400	-0.4770
163.9602	-315.6400	-0.4759
164.0598	-315.6400	-0.4772
164.1599	-315.6400	-0.4777
164.2601	-315.6400	-0.4765
164.3615	-315.6400	-0.4772
164.4609	-315.6400	-0.4772
164.5624	-315.6400	-0.4785
164.6634	-315.6400	-0.4793
164.7634	-315.6400	-0.4767
164.8629	-315.6400	-0.4784
164.9634	-315.6400	-0.4769
165.0632	-315.6400	-0.4776
165.1628	-315.6400	-0.4780
165.2630	-315.6400	-0.4770
165.3630	-315.6400	-0.4801
165.4627	-315.6400	-0.4780
165.5634	-315.6400	-0.4780
165.6631	-315.6400	-0.4781
165.7629	-315.6400	-0.4785
165.8639	-315.6400	-0.4792
165.9642	-315.6400	-0.4761
166.0654	-315.6400	-0.4773
166.1653	-315.6400	-0.4758
166.2659	-315.6400	-0.4756
166.3668	-315.6400	-0.4757
166.4677	-315.6400	-0.4742
166.5675	-315.6400	-0.4748
166.6677	-315.6400	-0.4752
166.7679	-315.6400	-0.4750
166.8679	-315.6400	-0.4760
166.9684	-315.6400	-0.4754
167.0678	-315.6400	-0.4760
167.1689	-315.6400	-0.4752
167.2697	-315.6400	-0.4752
167.3712	-315.6400	-0.4754
167.4712	-315.6400	-0.4739
167.5709	-315.6400	-0.4749
167.6714	-315.6400	-0.4765
167.7709	-315.6400	-0.4756
167.8712	-315.6400	-0.4749
167.9712	-315.6400	-0.4767
168.0710	-315.6400	-0.4784
168.1714	-315.6400	-0.4761
168.2714	-315.6400	-0.4768
168.3714	-315.6400	-0.4771
168.4720	-315.6400	-0.4758
168.5724	-315.6400	-0.4770
168.6725	-315.6400	-0.4778
168.7722	-315.6400	-0.4781
168.8723	-315.6400	-0.4748
168.9725	-315.6400	-0.4741
169.0724	-315.6400	-0.4757
169.1719	-315.6400	-0.4744
169.2728	-315.6400	-0.4752
169.3732	-315.6400	-0.4760
169.4728	-315.6400	-0.4732
169.5746	-315.6400	-0.4740
169.6742	-315.6400	-0.4759
169.7744	-315.6400	-0.4760
169.8738	-315.6400	-0.4751
169.9749	-315.6400	-0.4769
170.0753	-315.6400	-0.4749
170.1763	-315.6400	-0.4749
170.2767	-315.6400	-0.4745
170.3762	-315.6400	-0.4765
170.4766	-315.6400	-0.4738
170.5766	-315.6400	-0.4744
170.6777	-315.6400	-0.4752
170.7775	-315.6400	-0.4743
170.8783	-315.6400	-0.4726
170.9793	-315.6400	-0.4754
171.0790	-315.6400	-0.4748
171.1791	-315.6400	-0.4768
171.2804	-315.6400	-0.4754
171.3802	-315.6400	-0.4786
171.4798	-315.6400	-0.4767
171.5805	-315.6400	-0.4744
171.6816	-315.6400	-0.4739
171.7815	-315.6400	-0.4745
171.8809	-315.6400	-0.4753
171.9811	-315.6400	-0.4753
172.0817	-315.6400	-0.4761
172.1817	-315.6400	-0.4764
172.2815	-315.6400	-0.4754
172.3810	-315.6400	-0.4737
172.4825	-315.6400	-0.4760
172.5826	-315.6400	-0.4740
172.6835	-315.6400	-0.4755
172.7840	-315.6400	-0.4752
172.8843	-315.6400	-0.4740
172.9839	-315.6400	-0.4764
173.0844	-315.6400	-0.4732
173.1839	-315.6400	-0.4760
173.2839	-315.6400	-0.4737
173.3846	-315.6400	-0.4738
173.4844	-315.6400	-0.4726
173.5838	-315.6400	-0.4739
173.6846	-315.6400	-0.4744
173.7844	-315.6400	-0.4754
173.8841	-315.6400	-0.4732
173.9844	-315.6400	-0.4722
174.0842	-315.6400	-0.4770
174.1838	-315.6400	-0.4733
174.2857	-315.6400	-0.4750
174.3868	-315.6400	-0.4730
174.4859	-315.6400	-0.4732
174.5871	-315.6400	-0.4751
174.6868	-315.6400	-0.4746
174.7875	-315.6400	-0.4720
174.8873	-315.6400	-0.4753
174.9887	-315.6400	-0.4744
175.0880	-315.6400	-0.4753
175.1886	-315.6400	-0.4735
175.2880	-315.6400	-0.4750
175.3896	-315.6400	-0.4737
175.4902	-315.6400	-0.4750
175.5898	-315.6400	-0.4752
175.6902	-315.6400	-0.4746
175.7905	-315.6400	-0.4759
175.8917	-315.6400	-0.4738
175.9926	-315.6400	-0.4756
176.0934	-315.6400	-0.4750
176.1936	-315.6400	-0.4742
176.2947	-315.6400	-0.4756
176.3955	-315.6400	-0.4740
176.4951	-315.6400	-0.4739
176.5951	-315.6400	-0.4731
176.6949	-315.6400	-0.4746
176.7949	-315.6400	-0.4751
176.8967	-315.6400	-0.4749
176.9960	-315.6400	-0.4714
177.0977	-315.6400	-0.4739
177.1976	-315.6400	-0.4756
177.2980	-315.6400	-0.4730
177.3984	-315.6400	-0.4731
177.4980	-315.6400	-0.4748
177.5985	-315.6400	-0.4711
177.6995	-315.6400	-0.4722
177.8005	-315.6400	-0.4732
177.9005	-315.6400	-0.4749
178.0018	-315.6400	-0.4753
178.1036	-315.6400	-0.4712
178.2029	-315.6400	-0.4721
178.3043	-315.6400	-0.4732
178.4040	-315.6400	-0.4742
178.5039	-315.6400	-0.4737
178.6039	-315.6400	-0.4744
178.7041	-315.6400	-0.4719
178.8043	-315.6400	-0.4702
178.9043	-315.6400	-0.4717
179.0047	-315.6400	-0.4725
179.1044	-315.6400	-0.4708
179.2057	-315.6400	-0.4708
179.3050	-315.6400	-0.4714
179.4050	-315.6400	-0.4715
179.5062	-315.6400	-0.4712
179.6060	-315.6400	-0.4733
179.7066	-315.6400	-0.4724
179.8067	-315.6400	-0.4722
179.9063	-315.6400	-0.4715
180.0060	-315.6400	-0.4703
180.1077	-315.6400	-0.4711
180.2075	-315.6400	-0.4715
180.3084	-315.6400	-0.4742
180.4078	-315.6400	-0.4721
180.5079	-315.6400	-0.4713
180.6088	-315.6400	-0.4727
180.7096	-315.6400	-0.4703
180.8104	-315.6400	-0.4730
180.9108	-315.6400	-0.4741
181.0105	-315.6400	-0.4730
181.1098	-315.6400	-0.4702
181.2118	-315.6400	-0.4714
181.3118	-315.6400	-0.4721
181.4111	-315.6400	-0.4708
181.5110	-315.6400	-0.4715
181.6110	-315.6400	-0.4717
181.7120	-315.6400	-0.4737
181.8138	-315.6400	-0.4732
181.9133	-315.6400	-0.4738
182.0134	-315.6400	-0.4721
182.1132	-315.6400	-0.4707
182.2130	-315.6400	-0.4716
182.3131	-315.6400	-0.4726
182.4146	-315.6400	-0.4721
182.5146	-315.6400	-0.4729
182.6139	-315.6400	-0.4711
182.7141	-315.6400	-0.4710
182.8156	-315.6400	-0.4695
182.9165	-315.6400	-0.4741
183.0168	-315.6400	-0.4714
183.1161	-315.6400	-0.4744
183.2174	-315.6400	-0.4719
183.3176	-315.6400	-0.4709
183.4170	-315.6400	-0.4712
183.5181	-315.6400	-0.4720
183.6182	-315.6400	-0.4737
183.7186	-315.6400	-0.4710
183.8182	-315.6400	-0.4715
183.9181	-315.6400	-0.4719
184.0185	-315.6400	-0.4692
184.1194	-315.6400	-0.4683
184.2204	-315.6400	-0.4702
184.3199	-315.6400	-0.4713
184.4203	-315.6400	-0.4727
184.5205	-315.6400	-0.4706
184.6217	-315.6400	-0.4714
184.7212	-315.6400	-0.4706
184.8212	-315.6400	-0.4691
184.9214	-315.6400	-0.4715
185.0228	-315.6400	-0.4716
185.1226	-315.6400	-0.4712
185.2235	-315.6400	-0.4706
185.3235	-315.6400	-0.4717
185.4233	-315.6400	-0.4701
185.5230	-315.6400	-0.4694
185.6245	-315.6400	-0.4686
185.7240	-315.6400	-0.4690
185.8256	-315.6400	-0.4695
185.9254	-315.6400	-0.4687
186.0266	-315.6400	-0.4673
186.1261	-315.6400	-0.4679
186.2261	-315.6400	-0.4674
186.3261	-315.6400	-0.4657
186.4273	-315.6400	-0.4652
186.5272	-315.6400	-0.4680
186.6271	-315.6400	-0.4684
186.7284	-315.6400	-0.4691
186.8296	-315.6400	-0.4673
186.9298	-315.6400	-0.4690
187.0290	-315.6400	-0.4665
187.1292	-315.6400	-0.4692
187.2297	-315.6400	-0.4684
187.3294	-315.6400	-0.4679
187.4308	-315.6400	-0.4683
187.5315	-315.6400	-0.4684
187.6314	-315.6400	-0.4693
187.7322	-315.6400	-0.4675
187.8323	-315.6400	-0.4667
187.9334	-315.6400	-0.4691
188.0337	-315.6400	-0.4669
188.1329	-315.6400	-0.4674
188.2336	-315.6400	-0.4665
188.3330	-315.6400	-0.4666
188.4347	-315.6400	-0.4649
188.5343	-315.6400	-0.4671
188.6343	-315.6400	-0.4673
188.7342	-315.6400	-0.4686
188.8340	-315.6400	-0.4680
188.9356	-315.6400	-0.4683
189.0362	-315.6400	-0.4702
189.1374	-315.6400	-0.4689
189.2386	-315.6400	-0.4675
189.3391	-315.6400	-0.4673
189.4395	-315.6400	-0.4682
189.5391	-315.6400	-0.4685
189.6396	-315.6400	-0.4671
189.7393	-315.6400	-0.4682
189.8395	-315.6400	-0.4675
189.9394	-315.6400	-0.4675
190.0394	-315.6400	-0.4669
190.1391	-315.6400	-0.4669
190.2395	-315.6400	-0.4670
190.3398	-315.6400	-0.4662
190.4393	-315.6400	-0.4640
190.5391	-315.6400	-0.4650
190.6396	-315.6400	-0.4662
190.7394	-315.6400	-0.4650
190.8391	-315.6400	-0.4653
190.9402	-315.6400	-0.4644
191.0412	-315.6400	-0.4655
191.1427	-315.6400	-0.4657
191.2431	-315.6400	-0.4669
191.3435	-315.6400	-0.4658
191.4432	-315.6400	-0.4662
191.5433	-315.6400	-0.4666
191.6440	-315.6400	-0.4669
191.7447	-315.6400	-0.4663
191.8452	-315.6400	-0.4656
191.9450	-315.6400	-0.4672
192.0455	-315.6400	-0.4673
192.1460	-315.6400	-0.4674
192.2460	-315.6400	-0.4663
192.3461	-315.6400	-0.4679
192.4478	-315.6400	-0.4666
192.5472	-315.6400	-0.4665
192.6471	-315.6400	-0.4668
192.7471	-315.6400	-0.4681
192.8478	-315.6400	-0.4662
192.9489	-315.6400	-0.4669
193.0495	-315.6400	-0.4680
193.1490	-315.6400	-0.4673
193.2508	-315.6400	-0.4688
193.3503	-315.6400	-0.4678
193.4519	-315.6400	-0.4659
193.5528	-315.6400	-0.4680
193.6539	-315.6400	-0.4697
193.7532	-315.6400	-0.4673
193.8544	-315.6400	-0.4678
193.9544	-315.6400	-0.4684
194.0544	-315.6400	-0.4686
194.1545	-315.6400	-0.4678
194.2558	-315.6400	-0.4681
194.3552	-315.6400	-0.4656
194.4553	-315.6400	-0.4640
194.5565	-315.6400	-0.4661
194.6576	-315.6400	-0.4674
194.7577	-315.6400	-0.4676
194.8583	-315.6400	-0.4669
194.9582	-315.6400	-0.4677
195.0598	-315.6400	-0.4683
195.1596	-315.6400	-0.4687
195.2608	-315.6400	-0.4682
195.3602	-315.6400	-0.4665
195.4616	-315.6400	-0.4652
195.5610	-315.6400	-0.4644
195.6628	-315.6400	-0.4645
195.7623	-315.6400	-0.4634
195.8629	-315.6400	-0.4652
195.9625	-315.6400	-0.4658
196.0622	-315.6400	-0.4666
196.1639	-315.6400	-0.4665
196.2645	-315.6400	-0.4656
196.3659	-315.6400	-0.4640
196.4653	-315.6400	-0.4661
196.5653	-315.6400	-0.4643
196.6670	-315.6400	-0.4652
196.7677	-315.6400	-0.4672
196.8689	-315.6400	-0.4690
196.9681	-315.6400	-0.4675
197.0698	-315.6400	-0.4673
197.1692	-315.6400	-0.4644
197.2702	-315.6400	-0.4657
197.3710	-315.6400	-0.4668
197.4715	-315.6400	-0.4647
197.5710	-315.6400	-0.4649
197.6713	-315.6400	-0.4648
197.7715	-315.6400	-0.4670
197.8720	-315.6400	-0.4651
197.9740	-315.6400	-0.4644
198.0759	-315.6400	-0.4666
198.1756	-315.6400	-0.4649
198.2770	-315.6400	-0.4656
198.3777	-315.6400	-0.4649
198.4787	-315.6400	-0.4666
198.5799	-315.6400	-0.4668
198.6799	-315.6400	-0.4657
198.7794	-315.6400	-0.4641
198.8808	-315.6400	-0.4655
198.9808	-315.6400	-0.4638
199.0815	-315.6400	-0.4651
199.1814	-315.6400	-0.4625
199.2812	-315.6400	-0.4630
199.3829	-315.6400	-0.4635
199.4827	-315.6400	-0.4650
199.5820	-315.6400	-0.4655
199.6836	-315.6400	-0.4644
199.7836	-315.6400	-0.4654
199.8840	-315.6400	-0.4647
199.9854	-315.6400	-0.4655
200.0861	-315.6400	-0.4650
200.1862	-315.6400	-0.4634
200.2877	-315.6400	-0.4654
200.3885	-315.6400	-0.4650
200.4890	-315.6400	-0.4675
200.5884	-315.6400	-0.4650
200.6890	-315.6400	-0.4663
200.7881	-315.6400	-0.4650
200.8889	-315.6400	-0.4655
200.9889	-315.6400	-0.4643
201.0887	-315.6400	-0.4648
201.1893	-315.6400	-0.4652
201.2896	-315.6400	-0.4648
201.3894	-315.6400	-0.4629
201.4891	-315.6400	-0.4645
201.5898	-315.6400	-0.4654
201.6896	-315.6400	-0.4665
201.7910	-315.6400	-0.4645
201.8902	-315.6400	-0.4660
201.9911	-315.6400	-0.4630
202.0913	-315.6400	-0.4644
202.1928	-315.6400	-0.4637
202.2926	-315.6400	-0.4643
202.3937	-315.6400	-0.4630
202.4935	-315.6400	-0.4655
202.5937	-315.6400	-0.4619
202.6933	-315.6400	-0.4622
202.7931	-315.6400	-0.4632
202.8938	-315.6400	-0.4643
202.9939	-315.6400	-0.4630
203.0943	-315.6400	-0.4652
203.1960	-315.6400	-0.4655
203.2960	-315.6400	-0.4641
203.3953	-315.6400	-0.4640
203.4970	-315.6400	-0.4614
203.5968	-315.6400	-0.4637
203.6965	-315.6400	-0.4623
203.7977	-315.6400	-0.4630
203.8974	-315.6400	-0.4637
203.9985	-315.6400	-0.4643
204.0983	-315.6400	-0.4649
204.1980	-315.6400	-0.4622
204.2988	-315.6400	-0.4657
204.3998	-315.6400	-0.4660
204.4996	-315.6400	-0.4636
204.5993	-315.6400	-0.4621
204.6990	-315.6400	-0.4651
204.7998	-315.6400	-0.4649
204.8995	-315.6400	-0.4631
204.9992	-315.6400	-0.4647
205.0995	-315.6400	-0.4654
205.1994	-315.6400	-0.4662
205.2993	-315.6400	-0.4657
205.3992	-315.6400	-0.4652
205.4994	-315.6400	-0.4632
205.5994	-315.6400	-0.4644
205.6994	-315.6400	-0.4641
205.7997	-315.6400	-0.4648
205.8994	-315.6400	-0.4647
205.9994	-315.6400	-0.4653
206.0997	-315.6400	-0.4650
206.1994	-315.6400	-0.4643
206.2993	-315.6400	-0.4652
206.3995	-315.6400	-0.4658
206.4998	-315.6400	-0.4631
206.5991	-315.6400	-0.4636
206.6994	-315.6400	-0.4625
206.8000	-315.6400	-0.4632
206.8998	-315.6400	-0.4623
206.9991	-315.6400	-0.4637
207.0994	-315.6400	-0.4641
207.2008	-315.6400	-0.4617
207.3008	-315.6400	-0.4632
207.4007	-315.6400	-0.4657
207.5007	-315.6400	-0.4650
207.6018	-315.6400	-0.4640
207.7015	-315.6400	-0.4632
207.8016	-315.6400	-0.4653
207.9014	-315.6400	-0.4644
208.0028	-315.6400	-0.4615
208.1022	-315.6400	-0.4609
208.2037	-315.6400	-0.4613
208.3034	-315.6400	-0.4611
208.4058	-315.6400	-0.4605
208.5061	-315.6400	-0.4627
208.6068	-315.6400	-0.4638
208.7070	-315.6400	-0.4637
208.8072	-315.6400	-0.4621
208.9073	-315.6400	-0.4659
209.0089	-315.6400	-0.4659
209.1104	-315.6400	-0.4664
209.2094	-315.6400	-0.4640
209.3097	-315.6400	-0.4643
209.4107	-315.6400	-0.4643
209.5101	-315.6400	-0.4636
209.6110	-315.6400	-0.4634
209.7118	-315.6400	-0.4639
209.8116	-315.6400	-0.4646
209.9112	-315.6400	-0.4625
210.0117	-315.6400	-0.4632
210.1112	-315.6400	-0.4641
210.2120	-315.6400	-0.4620
210.3120	-315.6400	-0.4635
210.4131	-315.6400	-0.4631
210.5127	-315.6400	-0.4653
210.6130	-315.6400	-0.4619
210.7132	-315.6400	-0.4637
210.8146	-315.6400	-0.4631
210.9149	-315.6400	-0.4640
211.0146	-315.6400	-0.4661
211.1152	-315.6400	-0.4633
211.2163	-315.6400	-0.4633
211.3170	-315.6400	-0.4653
211.4167	-315.6400	-0.4618
211.5170	-315.6400	-0.4623
211.6170	-315.6400	-0.4618
211.7171	-315.6400	-0.4622
211.8187	-315.6400	-0.4620
211.9188	-315.6400	-0.4625
212.0182	-315.6400	-0.4638
212.1189	-315.6400	-0.4622
212.2186	-315.6400	-0.4593
212.3188	-315.6400	-0.4594
212.4189	-315.6400	-0.4616
212.5197	-315.6400	-0.4597
212.6194	-315.6400	-0.4630
212.7195	-315.6400	-0.4612
212.8195	-315.6400	-0.4624
212.9202	-315.6400	-0.4613
213.0204	-315.6400	-0.4628
213.1213	-315.6400	-0.4636
213.2220	-315.6400	-0.4638
213.3217	-315.6400	-0.4601
213.4215	-315.6400	-0.4588
213.5222	-315.6400	-0.4602
213.6229	-315.6400	-0.4603
213.7242	-315.6400	-0.4593
213.8247	-315.6400	-0.4608
213.9255	-315.6400	-0.4610
214.0255	-315.6400	-0.4620
214.1255	-315.6400	-0.4594
214.2262	-315.6400	-0.4602
214.3273	-315.6400	-0.4590
214.4278	-315.6400	-0.4596
214.5272	-315.6400	-0.4576
214.6275	-315.6400	-0.4582
214.7289	-315.6400	-0.4583
214.8291	-315.6400	-0.4590
214.9291	-315.6400	-0.4605
215.0303	-315.6400	-0.4602
215.1304	-315.6400	-0.4610
215.2309	-315.6400	-0.4631
215.3321	-315.6400	-0.4590
215.4319	-315.6400	-0.4622
215.5316	-315.6400	-0.4640
215.6317	-315.6400	-0.4620
215.7322	-315.6400	-0.4582
215.8327	-315.6400	-0.4623
215.9328	-315.6400	-0.4602
216.0333	-315.6400	-0.4618
216.1340	-315.6400	-0.4614
216.2345	-315.6400	-0.4586
216.3358	-315.6400	-0.4619
216.4363	-315.6400	-0.4628
216.5380	-315.6400	-0.4602
216.6379	-315.6400	-0.4626
216.7388	-315.6400	-0.4607
216.8383	-315.6400	-0.4623
216.9392	-315.6400	-0.4593
217.0408	-315.6400	-0.4633
217.1408	-315.6400	-0.4634
217.2402	-315.6400	-0.4617
217.3415	-315.6400	-0.4607
217.4412	-315.6400	-0.4590
217.5420	-315.6400	-0.4608
217.6422	-315.6400	-0.4612
217.7425	-315.6400	-0.4607
217.8439	-315.6400	-0.4613
217.9443	-315.6400	-0.4624
218.0449	-315.6400	-0.4614
218.1446	-315.6400	-0.4607
218.2468	-315.6400	-0.4611
218.3451	-315.6400	-0.4608
218.4449	-315.6400	-0.4595
218.5446	-315.6400	-0.4604
218.6444	-315.6400	-0.4581
218.7453	-315.6400	-0.4586
218.8471	-315.6400	-0.4566
218.9465	-315.6400	-0.4606
219.0470	-315.6400	-0.4599
219.1464	-315.6400	-0.4605
219.2479	-315.6400	-0.4591
219.3474	-315.6400	-0.4597
219.4477	-315.6400	-0.4605
219.5475	-315.6400	-0.4602
219.6489	-315.6400	-0.4596
219.7487	-315.6400	-0.4579
219.8500	-315.6400	-0.4591
219.9492	-315.6400	-0.4596
220.0494	-315.6400	-0.4601
220.1496	-315.6400	-0.4597
220.2496	-315.6400	-0.4596
220.3508	-315.6400	-0.4567
220.4516	-315.6400	-0.4607
220.5532	-315.6400	-0.4587
220.6530	-315.6400	-0.4603
220.7542	-315.6400	-0.4567
220.8540	-315.6400	-0.4597
220.9544	-315.6400	-0.4587
221.0549	-315.6400	-0.4587
221.1552	-315.6400	-0.4580
221.2549	-315.6400	-0.4583
221.3546	-315.6400	-0.4593
221.4547	-315.6400	-0.4565
221.5553	-315.6400	-0.4571
221.6562	-315.6400	-0.4592
221.7570	-315.6400	-0.4585
221.8563	-315.6400	-0.4558
221.9569	-315.6400	-0.4596
222.0567	-315.6400	-0.4577
222.1571	-315.6400	-0.4592
222.2565	-315.6400	-0.4575
222.3568	-315.6400	-0.4588
222.4567	-315.6400	-0.4586
222.5567	-315.6400	-0.4569
222.6568	-315.6400	-0.4568
222.7565	-315.6400	-0.4568
222.8563	-315.6400	-0.4593
222.9566	-315.6400	-0.4584
223.0569	-315.6400	-0.4581
223.1565	-315.6400	-0.4589
223.2568	-315.6400	-0.4606
223.3571	-315.6400	-0.4572
223.4572	-315.6400	-0.4561
223.5581	-315.6400	-0.4574
223.6572	-315.6400	-0.4575
223.7578	-315.6400	-0.4571
223.8575	-315.6400	-0.4548
223.9575	-315.6400	-0.4566
224.0573	-315.6400	-0.4553
224.1575	-315.6400	-0.4530
224.2588	-315.6400	-0.4556
224.3590	-315.6400	-0.4586
224.4592	-315.6400	-0.4590
224.5597	-315.6400	-0.4580
224.6599	-315.6400	-0.4567
224.7602	-315.6400	-0.4606
224.8601	-315.6400	-0.4560
224.9608	-315.6400	-0.4543
225.0629	-315.6400	-0.4578
225.1624	-315.6400	-0.4583
225.2624	-315.6400	-0.4591
225.3639	-315.6400	-0.4574
225.4640	-315.6400	-0.4601
225.5643	-315.6400	-0.4587
225.6646	-315.6400	-0.4574
225.7652	-315.6400	-0.4559
225.8648	-315.6400	-0.4604
225.9649	-315.6400	-0.4615
226.0662	-315.6400	-0.4575
226.1655	-315.6400	-0.4603
226.2665	-315.6400	-0.4583
226.3669	-315.6400	-0.4593
226.4675	-315.6400	-0.4550
226.5683	-315.6400	-0.4566
226.6692	-315.6400	-0.4568
226.7700	-315.6400	-0.4584
226.8706	-315.6400	-0.4562
226.9704	-315.6400	-0.4604
227.0703	-315.6400	-0.4583
227.1721	-315.6400	-0.4584
227.2720	-315.6400	-0.4561
227.3723	-315.6400	-0.4556
227.4739	-315.6400	-0.4572
227.5742	-315.6400	-0.4548
227.6734	-315.6400	-0.4559
227.7734	-315.6400	-0.4541
227.8733	-315.6400	-0.4586
227.9734	-315.6400	-0.4568
228.0752	-315.6400	-0.4568
228.1752	-315.6400	-0.4577
228.2763	-315.6400	-0.4586
228.3771	-315.6400	-0.4602
228.4770	-315.6400	-0.4592
228.5778	-315.6400	-0.4594
228.6784	-315.6400	-0.4617
228.7785	-315.6400	-0.4605
228.8800	-315.6400	-0.4580
228.9803	-315.6400	-0.4572
229.0797	-315.6400	-0.4580
229.1795	-315.6400	-0.4583
229.2810	-315.6400	-0.4550
229.3818	-315.6400	-0.4553
229.4820	-315.6400	-0.4567
229.5817	-315.6400	-0.4546
229.6816	-315.6400	-0.4551
229.7820	-315.6400	-0.4564
229.8820	-315.6400	-0.4575
229.9816	-315.6400	-0.4573
230.0814	-315.6400	-0.4571
230.1818	-315.6400	-0.4589
230.2824	-315.6400	-0.4568
230.3830	-315.6400	-0.4538
230.4830	-315.6400	-0.4554
230.5827	-315.6400	-0.4557
230.6832	-315.6400	-0.4569
230.7830	-315.6400	-0.4563
230.8835	-315.6400	-0.4557
230.9844	-315.6400	-0.4570
231.0848	-315.6400	-0.4601
231.1846	-315.6400	-0.4565
231.2848	-315.6400	-0.4572
231.3849	-315.6400	-0.4563
231.4855	-315.6400	-0.4565
231.5855	-315.6400	-0.4556
231.6864	-315.6400	-0.4550
231.7868	-315.6400	-0.4543
231.8873	-315.6400	-0.4533
231.9869	-315.6400	-0.4538
232.0865	-315.6400	-0.4543
232.1873	-315.6400	-0.4547
232.2873	-315.4750	-0.4585
232.4090	-315.0940	-0.4571
232.5086	-314.4060	-0.4551
232.6089	-313.7230	-0.4574
232.7083	-313.0730	-0.4546
232.8090	-312.3890	-0.4551
232.9092	-311.7400	-0.4500
233.0100	-311.0560	0.3955
233.1097	-310.4070	1.2848
233.2097	-309.7230	1.6671
233.3101	-309.0730	1.8258
233.4098	-308.3900	1.9024
233.5110	-307.7410	1.9378
233.6105	-307.0570	1.9521
233.7104	-306.4080	1.9493
233.8115	-305.7240	1.9318
233.9117	-305.0400	1.9076
234.0120	-304.3910	1.8718
234.1120	-303.7070	1.8385
234.2121	-303.0580	1.8048
234.3119	-302.3750	1.7637
234.4130	-301.7250	1.7277
234.5123	-301.0410	1.6903
234.6124	-300.3920	1.6550
234.7135	-299.7080	1.6191
234.8146	-299.0250	1.5858
234.9154	-298.3760	1.5576
235.0158	-297.6920	1.5244
235.1165	-297.0090	1.4950
235.2168	-296.3590	1.4664
235.3172	-295.6750	1.4420
235.4169	-295.0260	1.4201
235.5173	-294.3420	1.3974
235.6181	-293.6930	1.3797
235.7180	-293.0090	1.3585
235.8175	-292.3600	1.3378
235.9179	-291.6760	1.3268
236.0179	-291.0270	1.3069
236.1190	-290.3410	1.2943
236.2200	-289.6570	1.2837
236.3197	-289.0080	1.2700
236.4198	-288.3240	1.2605
236.5204	-287.6410	1.2484
236.6213	-286.9910	1.2380
236.7222	-286.3080	1.2317
236.8219	-285.6580	1.2283
236.9214	-284.9750	1.2173
237.0217	-284.3250	1.2097
237.1220	-283.6420	1.2062
237.2220	-282.9920	1.1945
237.3219	-282.3080	1.1888
237.4220	-281.6590	1.1836
237.5220	-280.9750	1.1763
237.6222	-280.3260	1.1786
237.7221	-279.6430	1.1733
237.8218	-278.9930	1.1662
237.9231	-278.3090	1.1645
238.0230	-277.6260	1.1633
238.1233	-276.9760	1.1627
238.2227	-276.3270	1.1569
238.3236	-275.6440	1.1569
238.4237	-274.9590	1.1514
238.5240	-274.3110	1.1545
238.6249	-273.6270	1.1543
238.7245	-272.9770	1.1517
238.8253	-272.2940	1.1498
238.9250	-271.6100	1.1503
239.0253	-270.9610	1.1515
239.1251	-270.3120	1.1545
239.2264	-269.6280	1.1577
239.3260	-268.9440	1.1647
239.4262	-268.2950	1.1704
239.5256	-267.6110	1.1799
239.6264	-266.9620	1.1902
239.7261	-266.2780	1.1980
239.8255	-265.6740	1.2082
239.9260	-265.6380	1.2152
240.0260	-265.6390	1.2287
240.1257	-265.6390	1.2371
240.2257	-265.6390	1.2417
240.3255	-265.6390	1.2539
240.4265	-265.6390	1.2615
240.5279	-265.6390	1.2530
240.6283	-265.6400	1.2696
240.7278	-265.6400	1.2705
240.8274	-265.6400	1.2683
240.9287	-265.6400	1.2663
241.0289	-265.6400	1.2680
241.1289	-265.6400	1.2680
241.2294	-265.6400	1.2691
241.3298	-265.6400	1.2656
241.4298	-265.6400	1.2688
241.5297	-265.6400	1.2676
241.6304	-265.6400	1.2656
241.7297	-265.6400	1.2694
241.8297	-265.6400	1.2677
241.9297	-265.6400	1.2672
242.0297	-265.6400	1.2648
242.1296	-265.6400	1.2666
242.2297	-265.6400	1.2677
242.3305	-265.6400	1.2638
242.4315	-265.6400	1.2644
242.5321	-265.6400	1.2672
242.6321	-265.6400	1.2658
242.7320	-265.6400	1.2668
242.8334	-265.6400	1.2650
242.9330	-265.6400	1.2684
243.0344	-265.6400	1.2655
243.1342	-265.6400	1.2669
243.2339	-265.6400	1.2688
243.3346	-265.6400	1.2655
243.4354	-265.6400	1.2662
243.5344	-265.6400	1.2674
243.6355	-265.6400	1.2679
243.7364	-265.6400	1.2650
243.8361	-265.6400	1.2646
243.9363	-265.6400	1.2690
244.0360	-265.6400	1.2657
244.1359	-265.6400	1.2643
244.2356	-265.6400	1.2666
244.3363	-265.6400	1.2672
244.4365	-265.6400	1.2616
244.5375	-265.6400	1.2635
244.6375	-265.6400	1.2649
244.7389	-265.6400	1.2637
244.8386	-265.6400	1.2630
244.9385	-265.6400	1.2663
245.0394	-265.6400	1.2646
245.1400	-265.6400	1.2646
245.2404	-265.6400	1.2676
245.3415	-265.6400	1.2649
245.4430	-265.6400	1.2647
245.5440	-265.6400	1.2626
245.6435	-265.6400	1.2661
245.7448	-265.6400	1.2652
245.8456	-265.6400	1.2616
245.9463	-265.6400	1.2647
246.0464	-265.6400	1.2669
246.1458	-265.6400	1.2643
246.2464	-265.6400	1.2623
246.3474	-265.6400	1.2658
246.4469	-265.6400	1.2649
246.5467	-265.6400	1.2634
246.6475	-265.6400	1.2653
246.7477	-265.6400	1.2650
246.8480	-265.6400	1.2637
246.9478	-265.6400	1.2616
247.0483	-265.6400	1.2634
247.1481	-265.6400	1.2648
247.2480	-265.6400	1.2615
247.3475	-265.6400	1.2633
247.4483	-265.6400	1.2641
247.5478	-265.6400	1.2631
247.6482	-265.6400	1.2645
247.7482	-265.6400	1.2669
247.8481	-265.6400	1.2644
247.9484	-265.6400	1.2612
248.0492	-265.6400	1.2627
248.1486	-265.6400	1.2622
248.2487	-265.6400	1.2649
248.3485	-265.6400	1.2621
248.4485	-265.6400	1.2640
248.5494	-265.6400	1.2649
248.6488	-265.6400	1.2627
248.7493	-265.6400	1.2630
248.8497	-265.6400	1.2663
248.9498	-265.6400	1.2642
249.0499	-265.6400	1.2651
249.1498	-265.6400	1.2655
249.2514	-265.6400	1.2648
249.3506	-265.6400	1.2640
249.4518	-265.6400	1.2627
249.5518	-265.6400	1.2676
249.6520	-265.6400	1.2637
