4/12/2023 3:27:49 pm
Time(s)	Displacement(mm)	Force(N)
0.0000	-266.2680	1.0975
0.1389	-266.2680	1.0988
0.2398	-266.2680	1.0970
0.3407	-266.2680	1.0989
0.4406	-266.2680	1.0994
0.5403	-266.2680	1.0965
0.6406	-266.2680	1.0999
0.7417	-266.2680	1.0979
0.8431	-266.2680	1.0964
0.9430	-266.2680	1.0945
1.0430	-266.2680	1.0994
1.1430	-266.2680	1.0978
1.2426	-266.2680	1.0987
1.3433	-266.2680	1.0988
1.4434	-266.2680	1.0990
1.5439	-266.2680	1.0994
1.6444	-266.2680	1.1022
1.7457	-266.2680	1.1010
1.8462	-266.2680	1.0999
1.9467	-266.2680	1.1004
2.0467	-266.2680	1.1000
2.1471	-266.2680	1.0978
2.2468	-266.2680	1.0967
2.3463	-266.2680	1.0974
2.4463	-266.2680	1.0975
2.5472	-266.2680	1.0972
2.6473	-266.2680	1.1012
2.7479	-266.2680	1.0995
2.8476	-266.2680	1.0987
2.9480	-266.2680	1.0986
3.0480	-266.2680	1.0980
3.1476	-266.2680	1.0998
3.2478	-266.2680	1.1019
3.3488	-266.2680	1.1040
3.4488	-266.2680	1.1018
3.5488	-266.2680	1.0982
3.6488	-266.2680	1.0989
3.7491	-266.2680	1.0978
3.8487	-266.2680	1.1009
3.9486	-266.2680	1.1011
4.0487	-266.2680	1.0979
4.1486	-266.2680	1.0971
4.2484	-266.2680	1.0961
4.3501	-266.2680	1.0954
4.4498	-266.2680	1.0981
4.5499	-266.2680	1.0995
4.6507	-266.2680	1.1005
4.7507	-266.2680	1.0988
4.8516	-266.2680	1.1013
4.9513	-266.2680	1.1003
5.0529	-266.2680	1.1028
5.1529	-266.2680	1.1036
5.2526	-266.1100	1.1124
5.3738	-266.0000	1.0892
5.4738	-266.0000	1.1095
5.5737	-266.0000	1.0997
5.6737	-266.0000	1.1032
5.7734	-266.0000	1.0979
5.8739	-266.0000	1.1015
5.9738	-266.0000	1.1018
6.0739	-266.0000	1.1034
6.1739	-266.0000	1.1033
6.2737	-266.0000	1.1015
6.3739	-266.0000	1.1028
6.4736	-266.0000	1.1046
6.5740	-266.0000	1.0996
6.6739	-266.0000	1.0990
6.7737	-266.0000	1.1011
6.8736	-266.0000	1.1014
6.9739	-266.0000	1.1015
7.0740	-266.0000	1.1038
7.1739	-266.0000	1.1030
7.2740	-266.0000	1.1052
7.3736	-266.0000	1.1064
7.4737	-266.0000	1.1058
7.5738	-266.0000	1.1051
7.6738	-266.0000	1.1058
7.7742	-266.0000	1.1042
7.8751	-266.0000	1.1077
7.9760	-266.0000	1.1046
8.0762	-266.0000	1.1038
8.1770	-266.0000	1.1003
8.2766	-266.0000	1.0981
8.3764	-266.0000	1.0997
8.4766	-266.0000	1.0998
8.5766	-266.0000	1.1012
8.6769	-266.0000	1.0998
8.7767	-266.0000	1.1026
8.8764	-266.0000	1.1026
8.9765	-266.0000	1.1055
9.0782	-266.0000	1.1011
9.1779	-266.0000	1.0952
9.2787	-266.0000	1.1019
9.3797	-266.0000	1.1016
9.4793	-266.0000	1.1062
9.5798	-266.0000	1.1054
9.6799	-266.0000	1.1050
9.7796	-266.0000	1.1015
9.8793	-266.0000	1.1030
9.9798	-266.0000	1.1063
10.0796	-266.0000	1.1048
10.1800	-266.0000	1.1054
10.2809	-266.0000	1.1023
10.3816	-266.0000	1.1011
10.4816	-266.0000	1.1006
10.5815	-266.0000	1.1021
10.6815	-266.0000	1.1050
10.7822	-266.0000	1.1055
10.8816	-266.0000	1.1009
10.9815	-266.0000	1.1018
11.0815	-266.1520	1.0908
11.2034	-266.5670	1.0894
11.3044	-267.2170	1.0977
11.4046	-267.9010	1.0913
11.5050	-268.5850	1.0904
11.6058	-269.2350	1.0870
11.7067	-269.9110	1.0971
11.8070	-270.0000	1.0918
11.9064	-270.0000	1.0856
12.0072	-270.0000	1.0844
12.1064	-270.0000	1.0839
12.2075	-270.0000	1.0827
12.3079	-270.0000	1.0822
12.4085	-270.0000	1.0829
12.5090	-270.0000	1.0837
12.6086	-270.0000	1.0840
12.7089	-270.0000	1.0860
12.8087	-270.0000	1.0862
12.9091	-270.0000	1.0873
13.0092	-270.0000	1.0879
13.1089	-270.0000	1.0898
13.2091	-270.0000	1.0866
13.3088	-270.0000	1.0863
13.4096	-270.0000	1.0863
13.5088	-270.0000	1.0868
13.6088	-270.0000	1.0876
13.7089	-270.0000	1.0851
13.8088	-270.0000	1.0869
13.9087	-270.0000	1.0851
14.0085	-270.0000	1.0864
14.1088	-270.0000	1.0863
14.2085	-270.0000	1.0838
14.3092	-270.0000	1.0865
14.4087	-270.0000	1.0875
14.5088	-270.0000	1.0869
14.6084	-270.0000	1.0872
14.7089	-270.0000	1.0856
14.8096	-270.0000	1.0846
14.9096	-270.0000	1.0869
15.0093	-270.0000	1.0849
15.1100	-270.0000	1.0868
15.2102	-270.0000	1.0817
15.3099	-270.0000	1.0824
15.4099	-270.0000	1.0865
15.5094	-270.0000	1.0866
15.6103	-270.0000	1.0889
15.7102	-270.0000	1.0872
15.8096	-270.0000	1.0830
15.9104	-270.0000	1.0869
16.0111	-270.0000	1.0878
16.1108	-270.0000	1.0887
16.2108	-270.0000	1.0845
16.3105	-270.0000	1.0867
16.4107	-270.0000	1.0886
16.5109	-270.0000	1.0856
16.6111	-270.0000	1.0850
16.7112	-270.0000	1.0845
16.8107	-270.0000	1.0809
16.9109	-270.0000	1.0832
17.0105	-270.0000	1.0876
17.1122	-270.0000	1.0853
17.2116	-270.0000	1.0861
17.3117	-270.0000	1.0833
17.4114	-270.0000	1.0829
17.5117	-270.0000	1.0869
17.6128	-270.0000	1.0878
17.7128	-270.0000	1.0877
17.8124	-270.0000	1.0861
17.9143	-270.0000	1.0854
18.0139	-270.0000	1.0833
18.1140	-270.0000	1.0850
18.2141	-270.0000	1.0892
18.3146	-270.0000	1.0865
18.4149	-270.0000	1.0872
18.5151	-270.0000	1.0839
18.6153	-270.0000	1.0863
18.7149	-270.0000	1.0863
18.8148	-270.0000	1.0880
18.9146	-270.0000	1.0873
19.0148	-270.0000	1.0854
19.1155	-270.0000	1.0840
19.2159	-270.0000	1.0860
19.3172	-270.0000	1.0867
19.4167	-270.0000	1.0885
19.5182	-270.0000	1.0898
19.6181	-270.0000	1.0893
19.7185	-270.0000	1.0897
19.8199	-270.0000	1.0902
19.9209	-270.0000	1.0902
20.0213	-270.0000	1.0891
20.1216	-270.0000	1.0860
20.2218	-270.0000	1.0862
20.3215	-270.0000	1.0841
20.4232	-270.0000	1.0823
20.5228	-270.0000	1.0842
20.6237	-270.0000	1.0836
20.7242	-270.0000	1.0869
20.8239	-270.0000	1.0834
20.9238	-270.0000	1.0826
21.0239	-270.0000	1.0834
21.1241	-270.0000	1.0832
21.2236	-270.0000	1.0845
21.3238	-270.0000	1.0842
21.4250	-270.0000	1.0861
21.5253	-270.0000	1.0848
21.6249	-270.0000	1.0838
21.7258	-270.0000	1.0865
21.8254	-270.0000	1.0883
21.9256	-270.0000	1.0895
22.0271	-270.0000	1.0896
22.1270	-270.0000	1.0866
22.2269	-270.0000	1.0846
22.3266	-270.0000	1.0859
22.4279	-270.0000	1.0847
22.5275	-270.0000	1.0832
22.6281	-270.0000	1.0854
22.7286	-270.0000	1.0862
22.8292	-270.0000	1.0845
22.9288	-270.0000	1.0881
23.0285	-270.0000	1.0848
23.1288	-270.0000	1.0837
23.2295	-270.0000	1.0885
23.3303	-270.0000	1.0872
23.4298	-270.0000	1.0870
23.5295	-270.0000	1.0839
23.6302	-270.0000	1.0844
23.7304	-270.0000	1.0856
23.8314	-270.0000	1.0852
23.9317	-270.0000	1.0846
24.0317	-270.0000	1.0808
24.1316	-270.0000	1.0811
24.2324	-270.0000	1.0835
24.3342	-270.0000	1.0824
24.4341	-270.0000	1.0831
24.5340	-270.0000	1.0827
24.6340	-270.0000	1.0827
24.7341	-270.0000	1.0841
24.8342	-270.0000	1.0829
24.9338	-270.0000	1.0840
25.0340	-270.0000	1.0811
25.1342	-270.0000	1.0843
25.2338	-270.0000	1.0854
25.3338	-270.0000	1.0816
25.4341	-270.0000	1.0800
25.5353	-270.0000	1.0841
25.6350	-270.0000	1.0836
25.7348	-270.0000	1.0862
25.8349	-270.0000	1.0876
25.9350	-270.0000	1.0832
26.0353	-270.1640	1.0822
26.1568	-270.5800	1.0626
26.2579	-271.2300	1.0767
26.3581	-271.9140	1.0795
26.4580	-272.5630	1.0741
26.5588	-273.2480	1.0748
26.6589	-273.9310	1.0750
26.7585	-274.5810	1.0735
26.8601	-275.2640	1.0687
26.9603	-275.9140	1.0677
27.0599	-276.5970	1.0692
27.1595	-277.2470	1.0667
27.2599	-277.9300	1.0636
27.3603	-278.5800	1.0613
27.4603	-279.2630	1.0582
27.5596	-279.9470	1.0571
27.6594	-280.5960	1.0543
27.7606	-281.2460	1.0518
27.8606	-281.9290	1.0466
27.9612	-282.5790	1.0419
28.0610	-283.2620	1.0390
28.1615	-283.9460	1.0369
28.2617	-284.5960	1.0335
28.3618	-285.2790	1.0258
28.4617	-285.9290	1.0223
28.5618	-286.6120	1.0158
28.6618	-287.2610	1.0111
28.7617	-287.9450	1.0030
28.8618	-288.5940	0.9982
28.9617	-289.2780	0.9929
29.0617	-289.9280	0.9846
29.1617	-290.6110	0.9763
29.2618	-291.2600	0.9683
29.3629	-291.9450	0.9582
29.4635	-292.6280	0.9549
29.5644	-293.2770	0.9411
29.6656	-293.9610	0.9284
29.7657	-294.6100	0.9183
29.8657	-295.2960	0.9082
29.9669	-295.9800	0.8936
30.0665	-296.6290	0.8775
30.1675	-297.3130	0.8652
30.2682	-297.9620	0.8487
30.3678	-298.6460	0.8284
30.4679	-299.2950	0.8094
30.5675	-299.9780	0.7896
30.6683	-300.6280	0.7657
30.7679	-301.3120	0.7405
30.8680	-301.9620	0.7149
30.9677	-302.6450	0.6850
31.0694	-303.3290	0.6576
31.1708	-303.9780	0.6228
31.2709	-304.6640	0.5852
31.3713	-305.3130	0.5435
31.4712	-305.9970	0.5043
31.5717	-306.6810	0.4578
31.6732	-307.3300	0.4127
31.7740	-308.0130	0.3616
31.8741	-308.6640	0.3021
31.9741	-309.3470	0.2415
32.0740	-310.0300	0.1787
32.1740	-310.6790	0.1087
32.2741	-311.3630	0.0312
32.3740	-312.0130	-0.0475
32.4751	-312.6960	-0.1362
32.5760	-313.3450	-0.2289
32.6761	-314.0290	-0.3296
32.7755	-314.6780	-0.4397
32.8759	-315.3620	-0.5582
32.9766	-315.6400	-1.0063
33.0769	-315.6410	-1.2833
33.1772	-315.6410	-1.1336
33.2779	-315.6400	-1.0691
33.3787	-315.6400	-1.0271
33.4786	-315.6400	-0.9956
33.5788	-315.6400	-0.9721
33.6789	-315.6400	-0.9523
33.7794	-315.6400	-0.9329
33.8789	-315.6400	-0.9181
33.9805	-315.6400	-0.9070
34.0799	-315.6400	-0.8997
34.1806	-315.6400	-0.8875
34.2809	-315.6400	-0.8797
34.3820	-315.6400	-0.8707
34.4818	-315.6400	-0.8650
34.5819	-315.6400	-0.8599
34.6821	-315.6400	-0.8553
34.7830	-315.6400	-0.8477
34.8833	-315.6400	-0.8426
34.9832	-315.6400	-0.8398
35.0827	-315.6400	-0.8342
35.1839	-315.6400	-0.8271
35.2842	-315.6400	-0.8235
35.3842	-315.6400	-0.8183
35.4842	-315.6400	-0.8175
35.5856	-315.6400	-0.8133
35.6867	-315.6400	-0.8082
35.7870	-315.6400	-0.8052
35.8870	-315.6400	-0.8025
35.9875	-315.6400	-0.7996
36.0866	-315.6400	-0.7959
36.1881	-315.6400	-0.7896
36.2878	-315.6400	-0.7902
36.3895	-315.6400	-0.7864
36.4893	-315.6400	-0.7842
36.5894	-315.6400	-0.7809
36.6895	-315.6400	-0.7788
36.7904	-315.6400	-0.7792
36.8896	-315.6400	-0.7768
36.9895	-315.6400	-0.7743
37.0905	-315.6400	-0.7724
37.1912	-315.6400	-0.7709
37.2911	-315.6400	-0.7657
37.3912	-315.6400	-0.7625
37.4915	-315.6400	-0.7614
37.5919	-315.6400	-0.7605
37.6919	-315.6400	-0.7595
37.7918	-315.6400	-0.7565
37.8919	-315.6400	-0.7549
37.9919	-315.6400	-0.7504
38.0919	-315.6400	-0.7511
38.1924	-315.6400	-0.7496
38.2919	-315.6400	-0.7478
38.3919	-315.6400	-0.7463
38.4918	-315.6400	-0.7413
38.5920	-315.6400	-0.7436
38.6935	-315.6400	-0.7403
38.7942	-315.6400	-0.7396
38.8942	-315.6400	-0.7378
38.9940	-315.6400	-0.7375
39.0958	-315.6400	-0.7343
39.1965	-315.6400	-0.7335
39.2962	-315.6400	-0.7319
39.3971	-315.6400	-0.7295
39.4970	-315.6400	-0.7299
39.5980	-315.6400	-0.7280
39.6980	-315.6400	-0.7262
39.7985	-315.6400	-0.7249
39.8994	-315.6400	-0.7249
39.9993	-315.6400	-0.7217
40.0999	-315.6400	-0.7198
40.1996	-315.6400	-0.7207
40.3011	-315.6400	-0.7187
40.4022	-315.6400	-0.7159
40.5018	-315.6400	-0.7153
40.6017	-315.6400	-0.7172
40.7031	-315.6400	-0.7118
40.8032	-315.6400	-0.7118
40.9030	-315.6400	-0.7127
41.0030	-315.6400	-0.7105
41.1041	-315.6400	-0.7086
41.2037	-315.6400	-0.7077
41.3037	-315.6400	-0.7054
41.4040	-315.6400	-0.7066
41.5038	-315.6400	-0.7031
41.6036	-315.6400	-0.6998
41.7040	-315.6400	-0.7005
41.8054	-315.6400	-0.6982
41.9055	-315.6400	-0.6986
42.0047	-315.6400	-0.6975
42.1050	-315.6400	-0.6967
42.2046	-315.6400	-0.6960
42.3048	-315.6400	-0.6974
42.4062	-315.6400	-0.6952
42.5071	-315.6400	-0.6947
42.6075	-315.6400	-0.6958
42.7071	-315.6400	-0.6917
42.8071	-315.6400	-0.6932
42.9071	-315.6400	-0.6911
43.0078	-315.6400	-0.6917
43.1086	-315.6400	-0.6899
43.2090	-315.6400	-0.6870
43.3098	-315.6400	-0.6896
43.4096	-315.6400	-0.6880
43.5107	-315.6400	-0.6841
43.6106	-315.6400	-0.6856
43.7111	-315.6400	-0.6839
43.8110	-315.6400	-0.6829
43.9111	-315.6400	-0.6794
44.0111	-315.6400	-0.6820
44.1111	-315.6400	-0.6823
44.2116	-315.6400	-0.6795
44.3119	-315.6400	-0.6777
44.4119	-315.6400	-0.6765
44.5119	-315.6400	-0.6795
44.6119	-315.6400	-0.6776
44.7119	-315.6400	-0.6752
44.8120	-315.6400	-0.6748
44.9119	-315.6400	-0.6751
45.0119	-315.6400	-0.6729
45.1121	-315.6400	-0.6709
45.2119	-315.6400	-0.6721
45.3120	-315.6400	-0.6687
45.4126	-315.6400	-0.6682
45.5132	-315.6400	-0.6687
45.6144	-315.6400	-0.6690
45.7141	-315.6400	-0.6710
45.8144	-315.6400	-0.6675
45.9142	-315.6400	-0.6663
46.0140	-315.6400	-0.6648
46.1142	-315.6400	-0.6638
46.2140	-315.6400	-0.6630
46.3143	-315.6400	-0.6609
46.4136	-315.6400	-0.6615
46.5143	-315.6400	-0.6623
46.6140	-315.6400	-0.6629
46.7143	-315.6400	-0.6618
46.8139	-315.6400	-0.6593
46.9154	-315.6400	-0.6591
47.0152	-315.6400	-0.6588
47.1150	-315.6400	-0.6595
47.2161	-315.6400	-0.6579
47.3161	-315.6400	-0.6581
47.4172	-315.6400	-0.6555
47.5178	-315.6400	-0.6575
47.6184	-315.6400	-0.6565
47.7182	-315.6400	-0.6533
47.8182	-315.6400	-0.6550
47.9181	-315.6400	-0.6555
48.0179	-315.6400	-0.6551
48.1177	-315.6400	-0.6521
48.2186	-315.6400	-0.6509
48.3188	-315.6400	-0.6532
48.4201	-315.6400	-0.6510
48.5205	-315.6400	-0.6481
48.6211	-315.6400	-0.6497
48.7218	-315.6400	-0.6509
48.8209	-315.6400	-0.6457
48.9212	-315.6400	-0.6451
49.0223	-315.6400	-0.6458
49.1221	-315.6400	-0.6465
49.2232	-315.6400	-0.6453
49.3228	-315.6400	-0.6413
49.4231	-315.6400	-0.6441
49.5241	-315.6400	-0.6434
49.6238	-315.6400	-0.6445
49.7240	-315.6400	-0.6436
49.8239	-315.6400	-0.6431
49.9244	-315.6400	-0.6418
50.0242	-315.6400	-0.6396
50.1241	-315.6400	-0.6408
50.2244	-315.6400	-0.6412
50.3240	-315.6400	-0.6390
50.4244	-315.6400	-0.6385
50.5239	-315.6400	-0.6391
50.6244	-315.6400	-0.6380
50.7243	-315.6400	-0.6406
50.8244	-315.6400	-0.6377
50.9243	-315.6400	-0.6367
51.0243	-315.6400	-0.6380
51.1242	-315.6400	-0.6370
51.2243	-315.6400	-0.6335
51.3244	-315.6400	-0.6325
51.4243	-315.6400	-0.6328
51.5237	-315.6400	-0.6329
51.6242	-315.6400	-0.6321
51.7241	-315.6400	-0.6332
51.8244	-315.6400	-0.6309
51.9243	-315.6400	-0.6292
52.0251	-315.6400	-0.6300
52.1250	-315.6400	-0.6303
52.2261	-315.6400	-0.6307
52.3258	-315.6400	-0.6285
52.4257	-315.6400	-0.6292
52.5266	-315.6400	-0.6281
52.6283	-315.6400	-0.6271
52.7279	-315.6400	-0.6269
52.8283	-315.6400	-0.6254
52.9287	-315.6400	-0.6271
53.0295	-315.6400	-0.6263
53.1297	-315.6400	-0.6247
53.2297	-315.6400	-0.6240
53.3303	-315.6400	-0.6260
53.4311	-315.6400	-0.6234
53.5315	-315.6400	-0.6234
53.6311	-315.6400	-0.6226
53.7311	-315.6400	-0.6209
53.8311	-315.6400	-0.6222
53.9310	-315.6400	-0.6210
54.0321	-315.6400	-0.6215
54.1320	-315.6400	-0.6205
54.2320	-315.6400	-0.6200
54.3322	-315.6400	-0.6217
54.4323	-315.6400	-0.6217
54.5320	-315.6400	-0.6202
54.6320	-315.6400	-0.6185
54.7319	-315.6400	-0.6177
54.8331	-315.6400	-0.6178
54.9332	-315.6400	-0.6184
55.0327	-315.6400	-0.6176
55.1343	-315.6400	-0.6167
55.2337	-315.6400	-0.6141
55.3344	-315.6400	-0.6149
55.4341	-315.6400	-0.6140
55.5351	-315.6400	-0.6155
55.6351	-315.6400	-0.6146
55.7353	-315.6400	-0.6121
55.8350	-315.6400	-0.6148
55.9352	-315.6400	-0.6117
56.0352	-315.6400	-0.6150
56.1355	-315.6400	-0.6108
56.2360	-315.6400	-0.6124
56.3367	-315.6400	-0.6117
56.4369	-315.6400	-0.6095
56.5369	-315.6400	-0.6117
56.6382	-315.6400	-0.6102
56.7394	-315.6400	-0.6105
56.8392	-315.6390	-0.6119
56.9404	-315.6390	-0.6117
57.0403	-315.6390	-0.6079
57.1402	-315.6390	-0.6111
57.2398	-315.6400	-0.6081
57.3402	-315.6400	-0.6062
57.4402	-315.6400	-0.6092
57.5406	-315.6400	-0.6037
57.6403	-315.6400	-0.6047
57.7397	-315.6400	-0.6028
57.8399	-315.6400	-0.6081
57.9399	-315.6400	-0.6070
58.0398	-315.6400	-0.6049
58.1402	-315.6400	-0.6068
58.2400	-315.6400	-0.6069
58.3406	-315.6400	-0.6042
58.4406	-315.6400	-0.6058
58.5405	-315.6400	-0.6063
58.6406	-315.6400	-0.6026
58.7402	-315.6400	-0.6058
58.8399	-315.6400	-0.6020
58.9397	-315.6400	-0.6040
59.0402	-315.6400	-0.6052
59.1404	-315.6400	-0.6011
59.2413	-315.6400	-0.6002
59.3409	-315.6400	-0.6000
59.4412	-315.6400	-0.5989
59.5423	-315.6400	-0.6000
59.6421	-315.6400	-0.5973
59.7419	-315.6400	-0.6004
59.8423	-315.6400	-0.6012
59.9418	-315.6400	-0.5984
60.0421	-315.6400	-0.6012
60.1420	-315.6400	-0.5987
60.2429	-315.6400	-0.5991
60.3432	-315.6400	-0.6013
60.4432	-315.6400	-0.5975
60.5433	-315.6400	-0.6013
60.6444	-315.6400	-0.5967
60.7455	-315.6400	-0.5988
60.8449	-315.6400	-0.5974
60.9448	-315.6400	-0.5995
61.0457	-315.6400	-0.5957
61.1476	-315.6400	-0.5946
61.2473	-315.6400	-0.5959
61.3476	-315.6400	-0.5943
61.4473	-315.6400	-0.5946
61.5473	-315.6400	-0.5949
61.6471	-315.6400	-0.5912
61.7468	-315.6400	-0.5952
61.8474	-315.6400	-0.5950
61.9472	-315.6400	-0.5927
62.0481	-315.6400	-0.5945
62.1487	-315.6400	-0.5939
62.2491	-315.6400	-0.5926
62.3503	-315.6400	-0.5938
62.4513	-315.6400	-0.5917
62.5524	-315.6400	-0.5923
62.6522	-315.6400	-0.5915
62.7527	-315.6400	-0.5926
62.8518	-315.6400	-0.5910
62.9525	-315.6400	-0.5899
63.0536	-315.6400	-0.5933
63.1535	-315.6400	-0.5920
63.2538	-315.6400	-0.5891
63.3542	-315.6400	-0.5891
63.4544	-315.6400	-0.5910
63.5544	-315.6400	-0.5874
63.6544	-315.6400	-0.5909
63.7543	-315.6400	-0.5899
63.8545	-315.6400	-0.5875
63.9544	-315.6400	-0.5889
64.0543	-315.6400	-0.5879
64.1543	-315.6400	-0.5871
64.2545	-315.6400	-0.5886
64.3545	-315.6400	-0.5889
64.4540	-315.6400	-0.5863
64.5542	-315.6400	-0.5874
64.6542	-315.6400	-0.5867
64.7538	-315.6400	-0.5875
64.8541	-315.6400	-0.5836
64.9545	-315.6400	-0.5852
65.0543	-315.6400	-0.5827
65.1545	-315.6400	-0.5848
65.2545	-315.6400	-0.5842
65.3545	-315.6400	-0.5855
65.4545	-315.6400	-0.5870
65.5542	-315.6400	-0.5849
65.6546	-315.6400	-0.5866
65.7545	-315.6400	-0.5855
65.8546	-315.6400	-0.5830
65.9542	-315.6400	-0.5832
66.0541	-315.6400	-0.5827
66.1545	-315.6400	-0.5833
66.2539	-315.6400	-0.5829
66.3542	-315.6400	-0.5811
66.4545	-315.6400	-0.5807
66.5543	-315.6400	-0.5797
66.6552	-315.6400	-0.5809
66.7565	-315.6400	-0.5813
66.8568	-315.6400	-0.5801
66.9571	-315.6400	-0.5778
67.0582	-315.6400	-0.5796
67.1587	-315.6400	-0.5823
67.2589	-315.6400	-0.5790
67.3605	-315.6400	-0.5817
67.4602	-315.6400	-0.5817
67.5606	-315.6400	-0.5782
67.6603	-315.6400	-0.5758
67.7613	-315.6400	-0.5802
67.8616	-315.6400	-0.5793
67.9628	-315.6400	-0.5747
68.0619	-315.6400	-0.5774
68.1626	-315.6400	-0.5774
68.2623	-315.6400	-0.5761
68.3620	-315.6400	-0.5788
68.4638	-315.6400	-0.5761
68.5640	-315.6400	-0.5758
68.6634	-315.6400	-0.5743
68.7640	-315.6400	-0.5764
68.8645	-315.6400	-0.5752
68.9644	-315.6400	-0.5761
69.0638	-315.6400	-0.5734
69.1645	-315.6400	-0.5746
69.2639	-315.6400	-0.5734
69.3644	-315.6400	-0.5721
69.4643	-315.6400	-0.5764
69.5644	-315.6400	-0.5735
69.6641	-315.6400	-0.5747
69.7642	-315.6400	-0.5717
69.8643	-315.6400	-0.5699
69.9640	-315.6400	-0.5705
70.0639	-315.6400	-0.5720
70.1646	-315.6400	-0.5729
70.2642	-315.6400	-0.5716
70.3643	-315.6400	-0.5711
70.4653	-315.6400	-0.5711
70.5652	-315.6400	-0.5705
70.6653	-315.6400	-0.5707
70.7656	-315.6400	-0.5666
70.8656	-315.6400	-0.5693
70.9652	-315.6400	-0.5681
71.0656	-315.6400	-0.5689
71.1651	-315.6400	-0.5685
71.2657	-315.6400	-0.5687
71.3653	-315.6400	-0.5705
71.4656	-315.6400	-0.5671
71.5651	-315.6400	-0.5683
71.6656	-315.6400	-0.5679
71.7664	-315.6400	-0.5651
71.8666	-315.6400	-0.5672
71.9663	-315.6400	-0.5664
72.0663	-315.6400	-0.5693
72.1662	-315.6400	-0.5676
72.2667	-315.6400	-0.5672
72.3668	-315.6400	-0.5677
72.4677	-315.6400	-0.5673
72.5674	-315.6400	-0.5655
72.6675	-315.6400	-0.5681
72.7678	-315.6400	-0.5654
72.8684	-315.6400	-0.5682
72.9684	-315.6400	-0.5647
73.0684	-315.6400	-0.5682
73.1684	-315.6400	-0.5651
73.2689	-315.6400	-0.5626
73.3697	-315.6400	-0.5624
73.4695	-315.6400	-0.5636
73.5692	-315.6400	-0.5634
73.6692	-315.6400	-0.5637
73.7694	-315.6400	-0.5633
73.8692	-315.6400	-0.5614
73.9690	-315.6400	-0.5640
74.0691	-315.6400	-0.5612
74.1696	-315.6400	-0.5601
74.2694	-315.6400	-0.5608
74.3697	-315.6400	-0.5627
74.4704	-315.6400	-0.5624
74.5717	-315.6400	-0.5627
74.6713	-315.6400	-0.5607
74.7717	-315.6400	-0.5616
74.8717	-315.6400	-0.5607
74.9713	-315.6400	-0.5605
75.0724	-315.6400	-0.5610
75.1726	-315.6400	-0.5629
75.2722	-315.6400	-0.5633
75.3735	-315.6400	-0.5597
75.4745	-315.6400	-0.5593
75.5751	-315.6400	-0.5608
75.6764	-315.6400	-0.5585
75.7768	-315.6400	-0.5608
75.8768	-315.6400	-0.5604
75.9766	-315.6400	-0.5578
76.0759	-315.6400	-0.5558
76.1763	-315.6400	-0.5592
76.2761	-315.6400	-0.5591
76.3760	-315.6400	-0.5561
76.4766	-315.6400	-0.5588
76.5769	-315.6400	-0.5597
76.6780	-315.6400	-0.5599
76.7786	-315.6400	-0.5595
76.8780	-315.6400	-0.5577
76.9785	-315.6400	-0.5587
77.0779	-315.6400	-0.5586
77.1788	-315.6400	-0.5570
77.2789	-315.6400	-0.5575
77.3807	-315.6400	-0.5580
77.4806	-315.6400	-0.5574
77.5805	-315.6400	-0.5590
77.6805	-315.6400	-0.5581
77.7817	-315.6400	-0.5581
77.8816	-315.6400	-0.5563
77.9811	-315.6400	-0.5557
78.0817	-315.6400	-0.5559
78.1814	-315.6400	-0.5555
78.2810	-315.6400	-0.5555
78.3810	-315.6400	-0.5561
78.4816	-315.6400	-0.5547
78.5809	-315.6400	-0.5524
78.6813	-315.6400	-0.5529
78.7810	-315.6400	-0.5533
78.8818	-315.6400	-0.5556
78.9810	-315.6400	-0.5528
79.0816	-315.6400	-0.5568
79.1810	-315.6400	-0.5520
79.2827	-315.6400	-0.5531
79.3824	-315.6400	-0.5511
79.4828	-315.6400	-0.5520
79.5823	-315.6400	-0.5550
79.6836	-315.6400	-0.5527
79.7834	-315.6400	-0.5530
79.8845	-315.6400	-0.5541
79.9844	-315.6400	-0.5537
80.0845	-315.6400	-0.5529
80.1846	-315.6400	-0.5520
80.2847	-315.6400	-0.5513
80.3847	-315.6400	-0.5520
80.4846	-315.6400	-0.5520
80.5846	-315.6400	-0.5509
80.6859	-315.6400	-0.5506
80.7876	-315.6400	-0.5486
80.8885	-315.6400	-0.5501
80.9886	-315.6400	-0.5494
81.0892	-315.6400	-0.5499
81.1890	-315.6400	-0.5507
81.2894	-315.6400	-0.5472
81.3904	-315.6400	-0.5495
81.4901	-315.6400	-0.5496
81.5904	-315.6400	-0.5500
81.6907	-315.6400	-0.5507
81.7914	-315.6400	-0.5481
81.8915	-315.6400	-0.5490
81.9925	-315.6400	-0.5488
82.0931	-315.6400	-0.5456
82.1930	-315.6400	-0.5462
82.2934	-315.6400	-0.5434
82.3938	-315.6400	-0.5464
82.4935	-315.6400	-0.5451
82.5946	-315.6400	-0.5449
82.6944	-315.6400	-0.5464
82.7943	-315.6400	-0.5480
82.8946	-315.6400	-0.5447
82.9942	-315.6400	-0.5457
83.0943	-315.6400	-0.5462
83.1944	-315.6400	-0.5462
83.2954	-315.6400	-0.5447
83.3959	-315.6400	-0.5474
83.4958	-315.6400	-0.5483
83.5952	-315.6400	-0.5464
83.6954	-315.6400	-0.5493
83.7956	-315.6400	-0.5459
83.8961	-315.6400	-0.5472
83.9965	-315.6400	-0.5465
84.0975	-315.6400	-0.5450
84.1972	-315.6400	-0.5474
84.2975	-315.6400	-0.5454
84.3971	-315.6400	-0.5446
84.4970	-315.6400	-0.5456
84.5970	-315.6400	-0.5420
84.6978	-315.6400	-0.5440
84.7980	-315.6400	-0.5451
84.8988	-315.6400	-0.5432
84.9981	-315.6400	-0.5433
85.0985	-315.6400	-0.5417
85.1986	-315.6400	-0.5435
85.2985	-315.6400	-0.5413
85.3983	-315.6400	-0.5454
85.4988	-315.6400	-0.5426
85.5989	-315.6400	-0.5425
85.6988	-315.6400	-0.5441
85.7981	-315.6400	-0.5423
85.8987	-315.6400	-0.5408
85.9984	-315.6400	-0.5427
86.0985	-315.6400	-0.5402
86.1985	-315.6400	-0.5424
86.2985	-315.6400	-0.5398
86.3998	-315.6400	-0.5408
86.5006	-315.6400	-0.5402
86.6008	-315.6400	-0.5387
86.7005	-315.6400	-0.5396
86.8001	-315.6400	-0.5393
86.9008	-315.6400	-0.5378
87.0007	-315.6400	-0.5404
87.1008	-315.6400	-0.5392
87.2015	-315.6400	-0.5398
87.3026	-315.6400	-0.5393
87.4024	-315.6400	-0.5405
87.5035	-315.6400	-0.5387
87.6045	-315.6400	-0.5391
87.7053	-315.6400	-0.5370
87.8059	-315.6400	-0.5382
87.9075	-315.6400	-0.5389
88.0073	-315.6400	-0.5355
88.1079	-315.6400	-0.5370
88.2073	-315.6400	-0.5390
88.3078	-315.6400	-0.5401
88.4079	-315.6400	-0.5396
88.5079	-315.6400	-0.5390
88.6074	-315.6400	-0.5374
88.7084	-315.6400	-0.5375
88.8094	-315.6400	-0.5368
88.9093	-315.6400	-0.5355
89.0091	-315.6400	-0.5387
89.1099	-315.6400	-0.5362
89.2096	-315.6400	-0.5365
89.3103	-315.6400	-0.5358
89.4101	-315.6400	-0.5361
89.5108	-315.6400	-0.5372
89.6106	-315.6400	-0.5334
89.7106	-315.6400	-0.5362
89.8103	-315.6400	-0.5341
89.9106	-315.6400	-0.5349
90.0103	-315.6400	-0.5349
90.1108	-315.6400	-0.5351
90.2106	-315.6400	-0.5355
90.3103	-315.6400	-0.5354
90.4120	-315.6400	-0.5339
90.5110	-315.6400	-0.5364
90.6118	-315.6400	-0.5342
90.7117	-315.6400	-0.5328
90.8115	-315.6400	-0.5352
90.9117	-315.6400	-0.5327
91.0110	-315.6400	-0.5325
91.1113	-315.6400	-0.5337
91.2115	-315.6400	-0.5347
91.3115	-315.6400	-0.5297
91.4121	-315.6400	-0.5311
91.5124	-315.6400	-0.5339
91.6124	-315.6400	-0.5333
91.7124	-315.6400	-0.5318
91.8123	-315.6400	-0.5308
91.9124	-315.6400	-0.5308
92.0124	-315.6400	-0.5312
92.1124	-315.6400	-0.5320
92.2124	-315.6400	-0.5303
92.3124	-315.6400	-0.5288
92.4122	-315.6400	-0.5291
92.5124	-315.6400	-0.5289
92.6124	-315.6400	-0.5272
92.7124	-315.6400	-0.5306
92.8123	-315.6400	-0.5295
92.9140	-315.6400	-0.5302
93.0149	-315.6400	-0.5305
93.1145	-315.6400	-0.5309
93.2143	-315.6400	-0.5294
93.3142	-315.6400	-0.5271
93.4153	-315.6400	-0.5305
93.5166	-315.6400	-0.5302
93.6175	-315.6400	-0.5322
93.7179	-315.6400	-0.5293
93.8174	-315.6400	-0.5316
93.9175	-315.6400	-0.5283
94.0187	-315.6400	-0.5279
94.1184	-315.6400	-0.5318
94.2183	-315.6400	-0.5315
94.3187	-315.6400	-0.5289
94.4195	-315.6400	-0.5290
94.5194	-315.6400	-0.5286
94.6191	-315.6400	-0.5258
94.7199	-315.6400	-0.5277
94.8209	-315.6400	-0.5281
94.9205	-315.6400	-0.5304
95.0202	-315.6400	-0.5297
95.1219	-315.6400	-0.5285
95.2212	-315.6400	-0.5255
95.3221	-315.6400	-0.5266
95.4235	-315.6400	-0.5258
95.5237	-315.6400	-0.5294
95.6239	-315.6400	-0.5270
95.7234	-315.6400	-0.5261
95.8234	-315.6400	-0.5250
95.9240	-315.6400	-0.5237
96.0248	-315.6400	-0.5244
96.1243	-315.6400	-0.5236
96.2245	-315.6400	-0.5266
96.3246	-315.6400	-0.5239
96.4243	-315.6400	-0.5257
96.5251	-315.6400	-0.5254
96.6260	-315.6400	-0.5256
96.7259	-315.6400	-0.5263
96.8251	-315.6400	-0.5256
96.9253	-315.6400	-0.5242
97.0265	-315.6400	-0.5241
97.1269	-315.6400	-0.5257
97.2276	-315.6400	-0.5279
97.3283	-315.6400	-0.5239
97.4290	-315.6400	-0.5261
97.5284	-315.6400	-0.5276
97.6295	-315.6400	-0.5250
97.7291	-315.6400	-0.5267
97.8301	-315.6400	-0.5266
97.9295	-315.6400	-0.5276
98.0295	-315.6400	-0.5237
98.1296	-315.6400	-0.5264
98.2297	-315.6400	-0.5227
98.3300	-315.6400	-0.5256
98.4297	-315.6400	-0.5216
98.5298	-315.6400	-0.5264
98.6295	-315.6400	-0.5241
98.7293	-315.6400	-0.5236
98.8300	-315.6400	-0.5250
98.9295	-315.6400	-0.5203
99.0296	-315.6400	-0.5238
99.1292	-315.6400	-0.5220
99.2298	-315.6400	-0.5240
99.3300	-315.6400	-0.5226
99.4294	-315.6400	-0.5233
99.5298	-315.6400	-0.5239
99.6300	-315.6400	-0.5220
99.7292	-315.6400	-0.5209
99.8300	-315.6400	-0.5224
99.9308	-315.6400	-0.5249
100.0305	-315.6400	-0.5228
100.1303	-315.6400	-0.5217
100.2310	-315.6400	-0.5234
100.3305	-315.6400	-0.5224
100.4304	-315.6400	-0.5215
100.5311	-315.6400	-0.5246
100.6320	-315.6400	-0.5243
100.7328	-315.6400	-0.5215
100.8325	-315.6400	-0.5209
100.9325	-315.6400	-0.5221
101.0325	-315.6400	-0.5174
101.1325	-315.6400	-0.5195
101.2331	-315.6400	-0.5213
101.3345	-315.6400	-0.5214
101.4346	-315.6400	-0.5219
101.5356	-315.6400	-0.5219
101.6366	-315.6400	-0.5231
101.7360	-315.6400	-0.5194
101.8356	-315.6400	-0.5225
101.9365	-315.6400	-0.5189
102.0369	-315.6400	-0.5212
102.1366	-315.6400	-0.5215
102.2374	-315.6400	-0.5173
102.3372	-315.6400	-0.5195
102.4378	-315.6400	-0.5180
102.5382	-315.6400	-0.5178
102.6398	-315.6400	-0.5187
102.7400	-315.6400	-0.5199
102.8402	-315.6400	-0.5199
102.9404	-315.6400	-0.5193
103.0403	-315.6400	-0.5203
103.1406	-315.6400	-0.5169
103.2406	-315.6400	-0.5204
103.3416	-315.6400	-0.5174
103.4417	-315.6400	-0.5210
103.5425	-315.6400	-0.5181
103.6423	-315.6400	-0.5169
103.7443	-315.6400	-0.5177
103.8458	-315.6400	-0.5202
103.9458	-315.6400	-0.5208
104.0469	-315.6400	-0.5173
104.1467	-315.6400	-0.5170
104.2470	-315.6400	-0.5181
104.3466	-315.6400	-0.5167
104.4476	-315.6400	-0.5192
104.5477	-315.6400	-0.5171
104.6478	-315.6400	-0.5174
104.7475	-315.6400	-0.5184
104.8475	-315.6400	-0.5164
104.9480	-315.6400	-0.5149
105.0476	-315.6400	-0.5151
105.1474	-315.6400	-0.5179
105.2479	-315.6400	-0.5182
105.3477	-315.6400	-0.5176
105.4472	-315.6400	-0.5154
105.5487	-315.6400	-0.5140
105.6492	-315.6400	-0.5155
105.7499	-315.6400	-0.5161
105.8497	-315.6400	-0.5167
105.9511	-315.6400	-0.5156
106.0511	-315.6400	-0.5155
106.1513	-315.6400	-0.5162
106.2516	-315.6400	-0.5144
106.3523	-315.6400	-0.5158
106.4523	-315.6400	-0.5143
106.5525	-315.6400	-0.5138
106.6524	-315.6400	-0.5157
106.7524	-315.6400	-0.5145
106.8524	-315.6400	-0.5163
106.9527	-315.6400	-0.5151
107.0523	-315.6400	-0.5144
107.1522	-315.6400	-0.5133
107.2522	-315.6400	-0.5135
107.3525	-315.6400	-0.5128
107.4524	-315.6400	-0.5139
107.5526	-315.6400	-0.5127
107.6540	-315.6400	-0.5143
107.7537	-315.6400	-0.5148
107.8538	-315.6400	-0.5148
107.9535	-315.6400	-0.5121
108.0551	-315.6400	-0.5117
108.1549	-315.6400	-0.5127
108.2547	-315.6400	-0.5126
108.3548	-315.6400	-0.5099
108.4549	-315.6400	-0.5129
108.5549	-315.6400	-0.5115
108.6548	-315.6400	-0.5090
108.7550	-315.6400	-0.5136
108.8548	-315.6400	-0.5102
108.9547	-315.6400	-0.5092
109.0556	-315.6400	-0.5114
109.1555	-315.6400	-0.5103
109.2561	-315.6400	-0.5105
109.3564	-315.6400	-0.5083
109.4569	-315.6400	-0.5111
109.5567	-315.6400	-0.5123
109.6566	-315.6400	-0.5106
109.7576	-315.6400	-0.5119
109.8576	-315.6400	-0.5104
109.9583	-315.6400	-0.5115
110.0589	-315.6400	-0.5137
110.1587	-315.6400	-0.5104
110.2598	-315.6400	-0.5091
110.3593	-315.6400	-0.5101
110.4612	-315.6400	-0.5096
110.5609	-315.6400	-0.5087
110.6607	-315.6400	-0.5098
110.7619	-315.6400	-0.5110
110.8616	-315.6400	-0.5089
110.9617	-315.6400	-0.5095
111.0617	-315.6400	-0.5082
111.1617	-315.6400	-0.5102
111.2631	-315.6400	-0.5079
111.3625	-315.6400	-0.5093
111.4624	-315.6400	-0.5092
111.5635	-315.6400	-0.5119
111.6638	-315.6400	-0.5095
111.7636	-315.6400	-0.5095
111.8641	-315.6400	-0.5086
111.9635	-315.6400	-0.5094
112.0637	-315.6400	-0.5110
112.1642	-315.6400	-0.5072
112.2652	-315.6400	-0.5102
112.3645	-315.6400	-0.5079
112.4650	-315.6400	-0.5077
112.5650	-315.6400	-0.5079
112.6660	-315.6400	-0.5069
112.7655	-315.6400	-0.5054
112.8656	-315.6400	-0.5069
112.9670	-315.6400	-0.5074
113.0664	-315.6400	-0.5076
113.1674	-315.6400	-0.5082
113.2675	-315.6400	-0.5060
113.3679	-315.6400	-0.5044
113.4677	-315.6400	-0.5082
113.5681	-315.6400	-0.5045
113.6682	-315.6400	-0.5061
113.7684	-315.6400	-0.5047
113.8693	-315.6400	-0.5039
113.9701	-315.6400	-0.5079
114.0694	-315.6400	-0.5053
114.1703	-315.6400	-0.5059
114.2704	-315.6400	-0.5054
114.3711	-315.6400	-0.5059
114.4708	-315.6400	-0.5071
114.5704	-315.6400	-0.5062
114.6713	-315.6400	-0.5059
114.7721	-315.6400	-0.5074
114.8730	-315.6400	-0.5046
114.9730	-315.6400	-0.5049
115.0727	-315.6400	-0.5044
115.1726	-315.6400	-0.5062
115.2726	-315.6400	-0.5047
115.3738	-315.6400	-0.5020
115.4747	-315.6400	-0.5057
115.5749	-315.6400	-0.5059
115.6750	-315.6400	-0.5027
115.7745	-315.6400	-0.5059
115.8747	-315.6400	-0.5044
115.9744	-315.6400	-0.5045
116.0761	-315.6400	-0.5037
116.1756	-315.6400	-0.5036
116.2766	-315.6400	-0.5052
116.3767	-315.6400	-0.5030
116.4763	-315.6400	-0.5031
116.5765	-315.6400	-0.5016
116.6767	-315.6400	-0.5046
116.7767	-315.6400	-0.5022
116.8770	-315.6400	-0.5033
116.9767	-315.6400	-0.5041
117.0772	-315.6400	-0.5008
117.1764	-315.6400	-0.5011
117.2778	-315.6400	-0.5013
117.3777	-315.6400	-0.5029
117.4776	-315.6400	-0.5068
117.5779	-315.6400	-0.5053
117.6775	-315.6400	-0.5048
117.7779	-315.6400	-0.5032
117.8783	-315.6400	-0.5045
117.9783	-315.6400	-0.5018
118.0786	-315.6400	-0.5035
118.1794	-315.6400	-0.5020
118.2803	-315.6400	-0.5027
118.3819	-315.6400	-0.5006
118.4819	-315.6400	-0.5029
118.5817	-315.6400	-0.5050
118.6829	-315.6400	-0.5042
118.7842	-315.6400	-0.5023
118.8837	-315.6400	-0.5027
118.9847	-315.6400	-0.5027
119.0861	-315.6400	-0.5007
119.1868	-315.6400	-0.5011
119.2875	-315.6400	-0.5014
119.3877	-315.6400	-0.5022
119.4878	-315.6400	-0.5034
119.5883	-315.6400	-0.5002
119.6888	-315.6400	-0.5017
119.7888	-315.6400	-0.5002
119.8886	-315.6400	-0.5032
119.9885	-315.6400	-0.5033
120.0891	-315.6400	-0.5000
120.1897	-315.6400	-0.4993
120.2909	-315.6400	-0.4989
120.3914	-315.6400	-0.5009
120.4916	-315.6400	-0.5016
120.5920	-315.6400	-0.5013
120.6922	-315.6400	-0.5018
120.7923	-315.6400	-0.4977
120.8937	-315.6400	-0.4988
120.9947	-315.6400	-0.4994
121.0948	-315.6400	-0.4989
121.1959	-315.6400	-0.4980
121.2957	-315.6400	-0.4965
121.3956	-315.6400	-0.4990
121.4957	-315.6400	-0.4995
121.5955	-315.6400	-0.4977
121.6962	-315.6400	-0.4982
121.7955	-315.6400	-0.4963
121.8963	-315.6400	-0.4969
121.9958	-315.6400	-0.4964
122.0962	-315.6400	-0.4970
122.1961	-315.6400	-0.4956
122.2958	-315.6400	-0.4953
122.3959	-315.6400	-0.4964
122.4961	-315.6400	-0.4984
122.5962	-315.6400	-0.5002
122.6955	-315.6400	-0.4975
122.7963	-315.6400	-0.4977
122.8953	-315.6400	-0.4950
122.9962	-315.6400	-0.4952
123.0963	-315.6400	-0.4953
123.1962	-315.6400	-0.4970
123.2965	-315.6400	-0.4951
123.3971	-315.6400	-0.4955
123.4968	-315.6400	-0.4956
123.5970	-315.6400	-0.4941
123.6964	-315.6400	-0.4982
123.7973	-315.6400	-0.4972
123.8968	-315.6400	-0.4950
123.9981	-315.6400	-0.4950
124.0977	-315.6400	-0.4955
124.1977	-315.6400	-0.4970
124.2980	-315.6400	-0.4931
124.3974	-315.6400	-0.4959
124.5001	-315.6400	-0.4959
124.5988	-315.6400	-0.4957
124.6990	-315.6400	-0.4946
124.7998	-315.6400	-0.4932
124.9009	-315.6400	-0.4946
125.0009	-315.6400	-0.4931
125.1008	-315.6400	-0.4944
125.2004	-315.6400	-0.4940
125.3009	-315.6400	-0.4910
125.4017	-315.6400	-0.4931
125.5028	-315.6400	-0.4959
125.6036	-315.6400	-0.4933
125.7038	-315.6400	-0.4988
125.8036	-315.6400	-0.4986
125.9048	-315.6400	-0.4963
126.0048	-315.6400	-0.4953
126.1047	-315.6400	-0.4958
126.2061	-315.6400	-0.4965
126.3088	-315.6400	-0.4931
126.4080	-315.6400	-0.4929
126.5075	-315.6400	-0.4919
126.6082	-315.6400	-0.4942
126.7080	-315.6400	-0.4927
126.8075	-315.6400	-0.4953
126.9078	-315.6400	-0.4943
127.0076	-315.6400	-0.4946
127.1083	-315.6400	-0.4916
127.2077	-315.6400	-0.4934
127.3077	-315.6400	-0.4943
127.4085	-315.6400	-0.4921
127.5093	-315.6400	-0.4910
127.6084	-315.6400	-0.4954
127.7088	-315.6400	-0.4931
127.8088	-315.6400	-0.4933
127.9086	-315.6400	-0.4946
128.0094	-315.6400	-0.4927
128.1094	-315.6400	-0.4917
128.2102	-315.6400	-0.4945
128.3095	-315.6400	-0.4910
128.4101	-315.6400	-0.4906
128.5106	-315.6400	-0.4957
128.6111	-315.6400	-0.4938
128.7104	-315.6400	-0.4940
128.8111	-315.6400	-0.4920
128.9108	-315.6400	-0.4933
129.0108	-315.6400	-0.4924
129.1110	-315.6400	-0.4908
129.2110	-315.6400	-0.4919
129.3109	-315.6400	-0.4947
129.4110	-315.6400	-0.4933
129.5109	-315.6400	-0.4905
129.6117	-315.6400	-0.4922
129.7119	-315.6400	-0.4891
129.8122	-315.6400	-0.4904
129.9114	-315.6400	-0.4917
130.0117	-315.6400	-0.4901
130.1121	-315.6400	-0.4935
130.2120	-315.6400	-0.4899
130.3121	-315.6400	-0.4907
130.4128	-315.6400	-0.4915
130.5125	-315.6400	-0.4920
130.6132	-315.6400	-0.4913
130.7143	-315.6400	-0.4899
130.8137	-315.6400	-0.4918
130.9149	-315.6400	-0.4881
131.0147	-315.6400	-0.4906
131.1151	-315.6400	-0.4906
131.2146	-315.6400	-0.4914
131.3149	-315.6400	-0.4892
131.4146	-315.6400	-0.4879
131.5151	-315.6400	-0.4888
131.6149	-315.6400	-0.4898
131.7148	-315.6400	-0.4881
131.8161	-315.6400	-0.4871
131.9158	-315.6400	-0.4874
132.0161	-315.6400	-0.4878
132.1158	-315.6400	-0.4861
132.2158	-315.6400	-0.4875
132.3167	-315.6400	-0.4877
132.4182	-315.6400	-0.4860
132.5178	-315.6400	-0.4866
132.6181	-315.6400	-0.4862
132.7192	-315.6400	-0.4890
132.8189	-315.6400	-0.4879
132.9190	-315.6400	-0.4890
133.0187	-315.6400	-0.4850
133.1188	-315.6400	-0.4864
133.2191	-315.6400	-0.4853
133.3194	-315.6400	-0.4858
133.4193	-315.6400	-0.4860
133.5185	-315.6400	-0.4862
133.6200	-315.6400	-0.4845
133.7201	-315.6400	-0.4850
133.8198	-315.6400	-0.4859
133.9199	-315.6400	-0.4851
134.0204	-315.6400	-0.4857
134.1205	-315.6400	-0.4863
134.2209	-315.6400	-0.4868
134.3208	-315.6400	-0.4869
134.4206	-315.6400	-0.4851
134.5209	-315.6400	-0.4867
134.6219	-315.6400	-0.4858
134.7216	-315.6400	-0.4860
134.8224	-315.6400	-0.4870
134.9221	-315.6400	-0.4851
135.0221	-315.6400	-0.4851
135.1221	-315.6400	-0.4858
135.2221	-315.6400	-0.4872
135.3223	-315.6400	-0.4866
135.4220	-315.6400	-0.4853
135.5218	-315.6400	-0.4860
135.6223	-315.6400	-0.4830
135.7222	-315.6400	-0.4831
135.8221	-315.6400	-0.4842
135.9224	-315.6400	-0.4853
136.0233	-315.6400	-0.4846
136.1227	-315.6400	-0.4875
136.2228	-315.6400	-0.4861
136.3241	-315.6400	-0.4855
136.4234	-315.6400	-0.4861
136.5241	-315.6400	-0.4834
136.6235	-315.6400	-0.4830
136.7242	-315.6400	-0.4841
136.8242	-315.6400	-0.4839
136.9245	-315.6400	-0.4837
137.0251	-315.6400	-0.4832
137.1250	-315.6400	-0.4830
137.2248	-315.6400	-0.4834
137.3245	-315.6400	-0.4835
137.4249	-315.6400	-0.4824
137.5251	-315.6400	-0.4837
137.6254	-315.6400	-0.4856
137.7249	-315.6400	-0.4876
137.8260	-315.6400	-0.4845
137.9269	-315.6400	-0.4846
138.0273	-315.6400	-0.4831
138.1273	-315.6400	-0.4844
138.2273	-315.6400	-0.4831
138.3276	-315.6400	-0.4847
138.4281	-315.6400	-0.4850
138.5282	-315.6400	-0.4829
138.6276	-315.6400	-0.4817
138.7280	-315.6400	-0.4803
138.8276	-315.6400	-0.4836
138.9292	-315.6400	-0.4795
139.0290	-315.6400	-0.4804
139.1293	-315.6400	-0.4813
139.2289	-315.6400	-0.4798
139.3287	-315.6400	-0.4816
139.4293	-315.6400	-0.4784
139.5303	-315.6400	-0.4834
139.6309	-315.6400	-0.4828
139.7324	-315.6400	-0.4778
139.8320	-315.6400	-0.4820
139.9319	-315.6400	-0.4784
140.0330	-315.6400	-0.4813
140.1329	-315.6400	-0.4783
140.2341	-315.6400	-0.4829
140.3337	-315.6400	-0.4813
140.4338	-315.6400	-0.4821
140.5343	-315.6400	-0.4789
140.6343	-315.6400	-0.4793
140.7339	-315.6400	-0.4803
140.8339	-315.6400	-0.4808
140.9343	-315.6400	-0.4802
141.0336	-315.6400	-0.4811
141.1351	-315.6400	-0.4813
141.2350	-315.6400	-0.4806
141.3349	-315.6400	-0.4802
141.4350	-315.6400	-0.4826
141.5348	-315.6400	-0.4825
141.6353	-315.6400	-0.4819
141.7352	-315.6400	-0.4781
141.8350	-315.6400	-0.4811
141.9352	-315.6400	-0.4819
142.0352	-315.6400	-0.4796
142.1353	-315.6400	-0.4838
142.2352	-315.6400	-0.4800
142.3351	-315.6400	-0.4820
142.4347	-315.6400	-0.4806
142.5364	-315.6400	-0.4836
142.6355	-315.6400	-0.4848
142.7364	-315.6400	-0.4820
142.8368	-315.6400	-0.4807
142.9370	-315.6400	-0.4813
143.0372	-315.6400	-0.4832
143.1372	-315.6400	-0.4825
143.2370	-315.6400	-0.4806
143.3372	-315.6400	-0.4829
143.4373	-315.6400	-0.4814
143.5373	-315.6400	-0.4807
143.6374	-315.6400	-0.4837
143.7370	-315.6400	-0.4824
143.8369	-315.6400	-0.4808
143.9367	-315.6400	-0.4797
144.0374	-315.6400	-0.4794
144.1368	-315.6400	-0.4792
144.2373	-315.6400	-0.4814
144.3379	-315.6400	-0.4788
144.4383	-315.6400	-0.4815
144.5383	-315.6400	-0.4819
144.6390	-315.6400	-0.4809
144.7387	-315.6400	-0.4776
144.8395	-315.6400	-0.4811
144.9392	-315.6400	-0.4779
145.0390	-315.6400	-0.4804
145.1392	-315.6400	-0.4789
145.2388	-315.6400	-0.4786
145.3403	-315.6400	-0.4788
145.4399	-315.6400	-0.4794
145.5411	-315.6400	-0.4789
145.6416	-315.6400	-0.4779
145.7430	-315.6400	-0.4789
145.8428	-315.6400	-0.4797
145.9430	-315.6400	-0.4790
146.0427	-315.6400	-0.4789
146.1441	-315.6400	-0.4785
146.2441	-315.6400	-0.4813
146.3443	-315.6400	-0.4794
146.4438	-315.6400	-0.4765
146.5437	-315.6400	-0.4785
146.6441	-315.6400	-0.4774
146.7449	-315.6400	-0.4774
146.8448	-315.6400	-0.4756
146.9450	-315.6400	-0.4760
147.0452	-315.6400	-0.4778
147.1451	-315.6400	-0.4781
147.2449	-315.6400	-0.4765
147.3456	-315.6400	-0.4790
147.4457	-315.6400	-0.4768
147.5470	-315.6400	-0.4779
147.6485	-315.6400	-0.4758
147.7493	-315.6400	-0.4762
147.8491	-315.6400	-0.4755
147.9490	-315.6400	-0.4774
148.0493	-315.6400	-0.4766
148.1494	-315.6400	-0.4737
148.2496	-315.6400	-0.4751
148.3509	-315.6400	-0.4775
148.4513	-315.6400	-0.4725
148.5515	-315.6400	-0.4740
148.6512	-315.6400	-0.4747
148.7506	-315.6400	-0.4763
148.8514	-315.6400	-0.4755
148.9524	-315.6400	-0.4727
149.0523	-315.6400	-0.4759
149.1521	-315.6400	-0.4729
149.2521	-315.6400	-0.4759
149.3524	-315.6400	-0.4769
149.4530	-315.6400	-0.4741
149.5529	-315.6400	-0.4746
149.6528	-315.6400	-0.4747
149.7541	-315.6400	-0.4728
149.8545	-315.6400	-0.4758
149.9544	-315.6400	-0.4727
150.0546	-315.6400	-0.4713
150.1553	-315.6400	-0.4712
150.2552	-315.6400	-0.4743
150.3551	-315.6400	-0.4722
150.4554	-315.6400	-0.4734
150.5553	-315.6400	-0.4752
150.6552	-315.6400	-0.4739
150.7552	-315.6400	-0.4721
150.8548	-315.6400	-0.4730
150.9550	-315.6400	-0.4736
151.0554	-315.6400	-0.4768
151.1559	-315.6400	-0.4746
151.2552	-315.6400	-0.4736
151.3550	-315.6400	-0.4740
151.4553	-315.6400	-0.4757
151.5550	-315.6400	-0.4732
151.6554	-315.6400	-0.4726
151.7550	-315.6400	-0.4719
151.8560	-315.6400	-0.4743
151.9568	-315.6400	-0.4757
152.0575	-315.6400	-0.4724
152.1567	-315.6400	-0.4739
152.2570	-315.6390	-0.4734
152.3566	-315.6400	-0.4757
152.4576	-315.6400	-0.4720
152.5578	-315.6400	-0.4763
152.6585	-315.6400	-0.4727
152.7584	-315.6400	-0.4722
152.8583	-315.6400	-0.4755
152.9591	-315.6400	-0.4717
153.0605	-315.6400	-0.4761
153.1602	-315.6400	-0.4728
153.2600	-315.6400	-0.4733
153.3600	-315.6400	-0.4739
153.4602	-315.6400	-0.4697
153.5598	-315.6400	-0.4754
153.6601	-315.6400	-0.4718
153.7604	-315.6400	-0.4736
153.8606	-315.6400	-0.4742
153.9605	-315.6400	-0.4734
154.0613	-315.6400	-0.4709
154.1610	-315.6400	-0.4720
154.2607	-315.6400	-0.4702
154.3607	-315.6400	-0.4714
154.4610	-315.6400	-0.4728
154.5607	-315.6400	-0.4726
154.6617	-315.6400	-0.4702
154.7620	-315.6400	-0.4713
154.8618	-315.6400	-0.4725
154.9625	-315.6400	-0.4686
155.0617	-315.6400	-0.4700
155.1622	-315.6400	-0.4723
155.2622	-315.6400	-0.4691
155.3632	-315.6400	-0.4736
155.4630	-315.6400	-0.4703
155.5630	-315.6400	-0.4718
155.6630	-315.6400	-0.4728
155.7637	-315.6400	-0.4682
155.8651	-315.6400	-0.4716
155.9654	-315.6400	-0.4702
156.0654	-315.6400	-0.4748
156.1650	-315.6400	-0.4694
156.2657	-315.6400	-0.4721
156.3672	-315.6400	-0.4700
156.4671	-315.6400	-0.4707
156.5678	-315.6400	-0.4730
156.6676	-315.6400	-0.4710
156.7677	-315.6400	-0.4720
156.8678	-315.6400	-0.4697
156.9686	-315.6400	-0.4692
157.0679	-315.6400	-0.4695
157.1681	-315.6400	-0.4693
157.2682	-315.6400	-0.4705
157.3683	-315.6400	-0.4712
157.4693	-315.6400	-0.4706
157.5696	-315.6400	-0.4702
157.6690	-315.6400	-0.4729
157.7698	-315.6400	-0.4701
157.8704	-315.6400	-0.4692
157.9701	-315.6400	-0.4718
158.0711	-315.6400	-0.4695
158.1717	-315.6400	-0.4697
158.2720	-315.6400	-0.4712
158.3722	-315.6400	-0.4700
158.4720	-315.6400	-0.4716
158.5717	-315.6400	-0.4686
158.6730	-315.6400	-0.4696
158.7730	-315.6400	-0.4675
158.8730	-315.6400	-0.4695
158.9730	-315.6400	-0.4684
159.0730	-315.6400	-0.4672
159.1728	-315.6400	-0.4673
159.2730	-315.6400	-0.4665
159.3745	-315.6400	-0.4666
159.4744	-315.6400	-0.4706
159.5740	-315.6400	-0.4682
159.6744	-315.6400	-0.4714
159.7742	-315.6400	-0.4719
159.8756	-315.6400	-0.4707
159.9753	-315.6400	-0.4708
160.0751	-315.6400	-0.4690
160.1752	-315.6400	-0.4678
160.2750	-315.6400	-0.4699
160.3752	-315.6400	-0.4697
160.4750	-315.6400	-0.4690
160.5751	-315.6400	-0.4707
160.6771	-315.6400	-0.4684
160.7772	-315.6400	-0.4672
160.8781	-315.6400	-0.4683
160.9782	-315.6400	-0.4674
161.0777	-315.6400	-0.4671
161.1787	-315.6400	-0.4681
161.2791	-315.6400	-0.4688
161.3798	-315.6400	-0.4672
161.4799	-315.6400	-0.4699
161.5816	-315.6400	-0.4680
161.6810	-315.6400	-0.4695
161.7817	-315.6400	-0.4657
161.8816	-315.6400	-0.4692
161.9817	-315.6400	-0.4687
162.0823	-315.6400	-0.4686
162.1824	-315.6400	-0.4711
162.2833	-315.6400	-0.4689
162.3831	-315.6400	-0.4693
162.4830	-315.6400	-0.4691
162.5831	-315.6400	-0.4666
162.6829	-315.6400	-0.4685
162.7831	-315.6400	-0.4679
162.8829	-315.6400	-0.4679
162.9831	-315.6400	-0.4700
163.0829	-315.6400	-0.4681
163.1831	-315.6400	-0.4663
163.2831	-315.6400	-0.4663
163.3830	-315.6400	-0.4651
163.4831	-315.6400	-0.4657
163.5831	-315.6400	-0.4650
163.6844	-315.6400	-0.4687
163.7841	-315.6400	-0.4667
163.8838	-315.6400	-0.4675
163.9842	-315.6400	-0.4681
164.0839	-315.6400	-0.4677
164.1842	-315.6400	-0.4677
164.2846	-315.6400	-0.4629
164.3845	-315.6400	-0.4654
164.4857	-315.6400	-0.4655
164.5854	-315.6400	-0.4627
164.6858	-315.6400	-0.4649
164.7859	-315.6400	-0.4654
164.8868	-315.6400	-0.4646
164.9872	-315.6400	-0.4629
165.0873	-315.6400	-0.4641
165.1891	-315.6400	-0.4663
165.2889	-315.6400	-0.4679
165.3892	-315.6400	-0.4656
165.4890	-315.6400	-0.4658
165.5891	-315.6400	-0.4650
165.6895	-315.6400	-0.4622
165.7897	-315.6400	-0.4637
165.8890	-315.6400	-0.4651
165.9889	-315.6400	-0.4637
166.0894	-315.6400	-0.4647
166.1891	-315.6400	-0.4656
166.2900	-315.6400	-0.4651
166.3905	-315.6400	-0.4634
166.4907	-315.6400	-0.4646
166.5901	-315.6400	-0.4627
166.6916	-315.6400	-0.4639
166.7918	-315.6400	-0.4654
166.8919	-315.6400	-0.4640
166.9925	-315.6400	-0.4632
167.0928	-315.6400	-0.4641
167.1932	-315.6400	-0.4656
167.2942	-315.6400	-0.4649
167.3941	-315.6400	-0.4639
167.4948	-315.6400	-0.4629
167.5951	-315.6400	-0.4638
167.6951	-315.6400	-0.4653
167.7952	-315.6400	-0.4603
167.8955	-315.6400	-0.4593
167.9952	-315.6400	-0.4604
168.0954	-315.6400	-0.4629
168.1961	-315.6400	-0.4601
168.2962	-315.6400	-0.4643
168.3971	-315.6400	-0.4616
168.4971	-315.6400	-0.4606
168.5970	-315.6400	-0.4610
168.6977	-315.6400	-0.4629
168.7975	-315.6400	-0.4596
168.8983	-315.6400	-0.4622
168.9981	-315.6400	-0.4601
169.0978	-315.6400	-0.4628
169.1981	-315.6400	-0.4604
169.2984	-315.6400	-0.4625
169.3989	-315.6400	-0.4611
169.4990	-315.6400	-0.4613
169.5997	-315.6400	-0.4603
169.6997	-315.6400	-0.4611
169.7988	-315.6400	-0.4578
169.8996	-315.6400	-0.4618
169.9996	-315.6400	-0.4579
170.1004	-315.6400	-0.4610
170.2009	-315.6400	-0.4602
170.3014	-315.6400	-0.4616
170.4012	-315.6400	-0.4585
170.5008	-315.6400	-0.4619
170.6019	-315.6400	-0.4604
170.7037	-315.6400	-0.4590
170.8031	-315.6400	-0.4592
170.9032	-315.6400	-0.4604
171.0031	-315.6400	-0.4609
171.1031	-315.6400	-0.4603
171.2046	-315.6400	-0.4588
171.3052	-315.6400	-0.4620
171.4053	-315.6400	-0.4615
171.5055	-315.6400	-0.4594
171.6055	-315.6400	-0.4595
171.7054	-315.6400	-0.4583
171.8061	-315.6400	-0.4605
171.9064	-315.6400	-0.4587
172.0070	-315.6400	-0.4610
172.1069	-315.6400	-0.4617
172.2074	-315.6400	-0.4620
172.3068	-315.6400	-0.4610
172.4073	-315.6400	-0.4614
172.5076	-315.6400	-0.4593
172.6073	-315.6400	-0.4599
172.7074	-315.6400	-0.4610
172.8073	-315.6400	-0.4568
172.9076	-315.6400	-0.4625
173.0068	-315.6400	-0.4591
173.1076	-315.6400	-0.4597
173.2076	-315.6400	-0.4586
173.3078	-315.6400	-0.4604
173.4078	-315.6400	-0.4611
173.5084	-315.6400	-0.4570
173.6085	-315.6400	-0.4602
173.7093	-315.6400	-0.4588
173.8090	-315.6400	-0.4584
173.9095	-315.6400	-0.4589
174.0089	-315.6400	-0.4599
174.1092	-315.6400	-0.4594
174.2089	-315.6400	-0.4580
174.3093	-315.6400	-0.4586
174.4089	-315.6400	-0.4584
174.5093	-315.6400	-0.4574
174.6088	-315.6400	-0.4541
174.7093	-315.6400	-0.4591
174.8097	-315.6400	-0.4556
174.9091	-315.6400	-0.4544
175.0090	-315.6400	-0.4584
175.1093	-315.6400	-0.4533
175.2100	-315.6400	-0.4569
175.3117	-315.6400	-0.4540
175.4110	-315.6400	-0.4570
175.5115	-315.6400	-0.4567
175.6114	-315.6400	-0.4534
175.7113	-315.6400	-0.4559
175.8120	-315.6400	-0.4521
175.9127	-315.6400	-0.4557
176.0122	-315.6400	-0.4561
176.1127	-315.6400	-0.4514
176.2125	-315.6400	-0.4537
176.3123	-315.6400	-0.4560
176.4123	-315.6400	-0.4542
176.5128	-315.6400	-0.4548
176.6126	-315.6400	-0.4544
176.7129	-315.6400	-0.4563
176.8132	-315.6400	-0.4538
176.9132	-315.6400	-0.4527
177.0132	-315.6400	-0.4541
177.1132	-315.6400	-0.4523
177.2147	-315.6400	-0.4538
177.3158	-315.6400	-0.4538
177.4156	-315.6400	-0.4546
177.5155	-315.6400	-0.4535
177.6156	-315.6400	-0.4545
177.7156	-315.6400	-0.4523
177.8151	-315.6400	-0.4532
177.9152	-315.6400	-0.4567
178.0156	-315.6400	-0.4539
178.1157	-315.6400	-0.4539
178.2152	-315.6400	-0.4562
178.3155	-315.6400	-0.4572
178.4155	-315.6400	-0.4538
178.5165	-315.6400	-0.4574
178.6163	-315.6400	-0.4533
178.7167	-315.6400	-0.4575
178.8160	-315.6400	-0.4533
178.9162	-315.6400	-0.4541
179.0174	-315.6400	-0.4527
179.1177	-315.6400	-0.4547
179.2177	-315.6400	-0.4547
179.3176	-315.6400	-0.4525
179.4179	-315.6400	-0.4537
179.5183	-315.6400	-0.4528
179.6198	-315.6400	-0.4516
179.7195	-315.6400	-0.4499
179.8189	-315.6400	-0.4517
179.9202	-315.6400	-0.4536
180.0202	-315.6400	-0.4532
180.1202	-315.6400	-0.4508
180.2202	-315.6400	-0.4512
180.3212	-315.6400	-0.4523
180.4212	-315.6400	-0.4491
180.5212	-315.6400	-0.4516
180.6213	-315.6400	-0.4522
180.7215	-315.6400	-0.4507
180.8212	-315.6400	-0.4540
180.9210	-315.6400	-0.4506
181.0225	-315.6400	-0.4518
181.1232	-315.6400	-0.4563
181.2232	-315.6400	-0.4513
181.3231	-315.6400	-0.4543
181.4231	-315.6400	-0.4526
181.5233	-315.6400	-0.4532
181.6230	-315.6400	-0.4504
181.7242	-315.6400	-0.4536
181.8241	-315.6400	-0.4501
181.9253	-315.6400	-0.4540
182.0255	-315.6400	-0.4539
182.1251	-315.6400	-0.4501
182.2254	-315.6400	-0.4546
182.3267	-315.6400	-0.4537
182.4261	-315.6400	-0.4522
182.5270	-315.6400	-0.4534
182.6277	-315.6400	-0.4520
182.7278	-315.6400	-0.4522
182.8277	-315.6400	-0.4477
182.9271	-315.6400	-0.4506
183.0273	-315.6400	-0.4508
183.1274	-315.6400	-0.4477
183.2276	-315.6400	-0.4489
183.3276	-315.6400	-0.4519
183.4270	-315.6400	-0.4507
183.5274	-315.6400	-0.4500
183.6276	-315.6400	-0.4514
183.7279	-315.6400	-0.4487
183.8271	-315.6400	-0.4474
183.9273	-315.6400	-0.4497
184.0278	-315.6400	-0.4490
184.1277	-315.6400	-0.4484
184.2278	-315.6400	-0.4520
184.3272	-315.6400	-0.4486
184.4274	-315.6400	-0.4523
184.5277	-315.6400	-0.4489
184.6274	-315.6400	-0.4480
184.7277	-315.6400	-0.4488
184.8276	-315.6400	-0.4478
184.9275	-315.6400	-0.4517
185.0272	-315.6400	-0.4510
185.1278	-315.6400	-0.4486
185.2282	-315.6400	-0.4498
185.3289	-315.6400	-0.4518
185.4289	-315.6400	-0.4489
185.5295	-315.6400	-0.4471
185.6298	-315.6400	-0.4498
185.7305	-315.6400	-0.4475
185.8309	-315.6400	-0.4517
185.9306	-315.6400	-0.4489
186.0312	-315.6400	-0.4521
186.1322	-315.6400	-0.4504
186.2320	-315.6400	-0.4493
186.3321	-315.6400	-0.4490
186.4323	-315.6400	-0.4486
186.5322	-315.6400	-0.4512
186.6329	-315.6400	-0.4521
186.7323	-315.6400	-0.4505
186.8338	-315.6400	-0.4483
186.9332	-315.6400	-0.4496
187.0332	-315.6400	-0.4484
187.1335	-315.6400	-0.4469
187.2339	-315.6400	-0.4515
187.3348	-315.6400	-0.4489
187.4356	-315.6400	-0.4518
187.5354	-315.6400	-0.4509
187.6353	-315.6400	-0.4519
187.7356	-315.6400	-0.4476
187.8354	-315.6400	-0.4489
187.9354	-315.6400	-0.4500
188.0352	-315.6400	-0.4479
188.1356	-315.6400	-0.4485
188.2361	-315.6400	-0.4455
188.3365	-315.6400	-0.4473
188.4366	-315.6400	-0.4487
188.5360	-315.6400	-0.4435
188.6363	-315.6400	-0.4452
188.7366	-315.6400	-0.4484
188.8364	-315.6400	-0.4473
188.9370	-315.6400	-0.4470
189.0373	-315.6400	-0.4486
189.1370	-315.6400	-0.4524
189.2379	-315.6400	-0.4483
189.3371	-315.6400	-0.4473
189.4373	-315.6400	-0.4490
189.5386	-315.6400	-0.4465
189.6386	-315.6400	-0.4450
189.7383	-315.6400	-0.4453
189.8387	-315.6400	-0.4481
189.9392	-315.6400	-0.4464
190.0392	-315.6400	-0.4480
190.1399	-315.6400	-0.4452
190.2392	-315.6400	-0.4484
190.3409	-315.6400	-0.4474
190.4406	-315.6400	-0.4461
190.5404	-315.6400	-0.4464
190.6412	-315.6400	-0.4475
190.7417	-315.6400	-0.4477
190.8413	-315.6400	-0.4503
190.9415	-315.6400	-0.4464
191.0412	-315.6400	-0.4466
191.1422	-315.6400	-0.4471
191.2423	-315.6400	-0.4452
191.3420	-315.6400	-0.4457
191.4423	-315.6400	-0.4486
191.5426	-315.6400	-0.4446
191.6427	-315.6400	-0.4462
191.7429	-315.6400	-0.4436
191.8424	-315.6400	-0.4460
191.9424	-315.6400	-0.4487
192.0427	-315.6400	-0.4453
192.1427	-315.6400	-0.4483
192.2444	-315.6400	-0.4478
192.3431	-315.6400	-0.4435
192.4449	-315.6400	-0.4471
192.5442	-315.6400	-0.4447
192.6446	-315.6400	-0.4464
192.7448	-315.6400	-0.4444
192.8458	-315.6400	-0.4486
192.9461	-315.6400	-0.4460
193.0471	-315.6400	-0.4492
193.1477	-315.6400	-0.4446
193.2472	-315.6400	-0.4457
193.3471	-315.6400	-0.4470
193.4475	-315.6400	-0.4451
193.5482	-315.6400	-0.4467
193.6487	-315.6400	-0.4461
193.7495	-315.6400	-0.4467
193.8505	-315.6400	-0.4467
193.9514	-315.6400	-0.4420
194.0512	-315.6400	-0.4435
194.1515	-315.6400	-0.4440
194.2515	-315.6400	-0.4413
194.3514	-315.6400	-0.4422
194.4513	-315.6400	-0.4423
194.5510	-315.6400	-0.4430
194.6527	-315.6400	-0.4441
194.7528	-315.6400	-0.4453
194.8529	-315.6400	-0.4483
194.9526	-315.6400	-0.4446
195.0524	-315.6400	-0.4472
195.1532	-315.6400	-0.4440
195.2534	-315.6400	-0.4454
195.3533	-315.6400	-0.4442
195.4535	-315.6400	-0.4459
195.5531	-315.6400	-0.4441
195.6537	-315.6400	-0.4479
195.7550	-315.6400	-0.4441
195.8543	-315.6400	-0.4465
195.9558	-315.6400	-0.4439
196.0556	-315.6400	-0.4447
196.1551	-315.6400	-0.4434
196.2554	-315.6400	-0.4460
196.3556	-315.6400	-0.4444
196.4556	-315.6400	-0.4444
196.5556	-315.6400	-0.4437
196.6558	-315.6400	-0.4459
196.7558	-315.6400	-0.4439
196.8554	-315.6400	-0.4432
196.9556	-315.6400	-0.4441
197.0557	-315.6400	-0.4428
197.1554	-315.6400	-0.4423
197.2556	-315.6400	-0.4441
197.3555	-315.6400	-0.4403
197.4558	-315.6400	-0.4446
197.5554	-315.6400	-0.4430
197.6553	-315.6400	-0.4401
197.7552	-315.6400	-0.4424
197.8554	-315.6400	-0.4443
197.9558	-315.6400	-0.4454
198.0560	-315.6400	-0.4424
198.1556	-315.6400	-0.4464
198.2557	-315.6400	-0.4446
198.3552	-315.6400	-0.4513
198.4558	-315.6400	-0.4450
198.5556	-315.6400	-0.4514
198.6561	-315.6400	-0.4462
198.7564	-315.6400	-0.4496
198.8578	-315.6400	-0.4454
198.9589	-315.6400	-0.4497
199.0589	-315.6400	-0.4464
199.1587	-315.6400	-0.4486
199.2591	-315.6400	-0.4453
199.3591	-315.6400	-0.4474
199.4607	-315.6400	-0.4453
199.5604	-315.6400	-0.4478
199.6603	-315.6400	-0.4437
199.7608	-315.6400	-0.4492
199.8606	-315.6400	-0.4472
199.9610	-315.6400	-0.4465
200.0604	-315.6400	-0.4478
200.1606	-315.6400	-0.4471
200.2607	-315.6400	-0.4470
200.3602	-315.6400	-0.4452
200.4604	-315.5550	-0.4457
200.5606	-315.3520	-0.4431
200.6605	-315.1570	-0.4443
200.7606	-314.9510	-0.4439
200.8615	-314.7460	-0.4329
200.9629	-314.5510	0.1070
201.0640	-314.3460	0.6261
201.1632	-314.1510	0.8976
201.2632	-313.9460	1.0992
201.3634	-313.7510	1.2630
201.4649	-313.5460	1.3964
201.5643	-313.3410	1.4967
201.6645	-313.1460	1.5720
201.7644	-312.9410	1.6307
201.8642	-312.7460	1.6759
201.9649	-312.5410	1.7122
202.0649	-312.3460	1.7424
202.1646	-312.1410	1.7629
202.2648	-311.9460	1.7834
202.3649	-311.7410	1.8005
202.4647	-311.5460	1.8124
202.5644	-311.3410	1.8212
202.6647	-311.1460	1.8307
202.7644	-310.9410	1.8382
202.8642	-310.7470	1.8382
202.9643	-310.5420	1.8468
203.0647	-310.3470	1.8474
203.1658	-310.1420	1.8501
203.2654	-309.9470	1.8506
203.3655	-309.7420	1.8480
203.4656	-309.5470	1.8462
203.5653	-309.3420	1.8418
203.6652	-309.1470	1.8343
203.7656	-308.9420	1.8337
203.8654	-308.7470	1.8282
203.9656	-308.5420	1.8197
204.0653	-308.3470	1.8146
204.1655	-308.1420	1.8057
204.2663	-307.9370	1.8011
204.3666	-307.7420	1.7915
204.4678	-307.5370	1.7810
204.5681	-307.3430	1.7762
204.6684	-307.1370	1.7664
204.7691	-306.9420	1.7575
204.8689	-306.7360	1.7474
204.9687	-306.5320	1.7395
205.0685	-306.3360	1.7318
205.1692	-306.1310	1.7194
205.2698	-305.9370	1.7079
205.3707	-305.7320	1.7012
205.4705	-305.5370	1.6940
205.5709	-305.3320	1.6805
205.6711	-305.1370	1.6714
205.7723	-304.9310	1.6619
205.8724	-304.7260	1.6526
205.9738	-304.5310	1.6425
206.0737	-304.3260	1.6336
206.1750	-304.1210	1.6231
206.2748	-303.9260	1.6134
206.3745	-303.7210	1.6023
206.4750	-303.5270	1.5937
206.5744	-303.3210	1.5847
206.6742	-303.1270	1.5753
206.7750	-302.9210	1.5642
206.8750	-302.7260	1.5558
206.9756	-302.5210	1.5469
207.0759	-302.3270	1.5387
207.1754	-302.1210	1.5275
207.2760	-301.9260	1.5219
207.3758	-301.7220	1.5152
207.4755	-301.5270	1.5047
207.5757	-301.3220	1.4959
207.6757	-301.1270	1.4881
207.7754	-300.9220	1.4784
207.8770	-300.7270	1.4709
207.9762	-300.5210	1.4632
208.0765	-300.3160	1.4579
208.1766	-300.1210	1.4512
208.2771	-299.9270	1.4406
208.3773	-299.7220	1.4338
208.4778	-299.5160	1.4257
208.5775	-299.3220	1.4203
208.6774	-299.1160	1.4126
208.7789	-298.9110	1.4080
208.8791	-298.7170	1.4020
208.9786	-298.5110	1.3937
209.0788	-298.3170	1.3842
209.1787	-298.1220	1.3796
209.2789	-297.9170	1.3742
209.3782	-297.7220	1.3672
209.4782	-297.5170	1.3633
209.5782	-297.3120	1.3570
209.6800	-297.1170	1.3538
209.7800	-296.9120	1.3493
209.8809	-296.7170	1.3421
209.9808	-296.5120	1.3366
210.0810	-296.3170	1.3321
210.1803	-296.1120	1.3261
210.2810	-295.9170	1.3221
210.3820	-295.7120	1.3178
210.4823	-295.5070	1.3135
210.5830	-295.3120	1.3072
210.6838	-295.1070	1.3023
210.7834	-294.9130	1.2972
210.8832	-294.7070	1.2964
210.9841	-294.5120	1.2888
211.0835	-294.3060	1.2836
211.1835	-294.1120	1.2806
211.2835	-293.9070	1.2818
211.3836	-293.7120	1.2761
211.4837	-293.5060	1.2713
211.5835	-293.3110	1.2686
211.6832	-293.1060	1.2661
211.7844	-292.9020	1.2585
211.8856	-292.7060	1.2560
211.9869	-292.5020	1.2544
212.0873	-292.2970	1.2525
212.1883	-292.1010	1.2481
212.2893	-291.8960	1.2435
212.3893	-291.6910	1.2425
212.4902	-291.5810	1.2390
212.5919	-291.5790	1.2341
212.6919	-291.5790	1.2315
212.7916	-291.5790	1.2303
212.8915	-291.5800	1.2285
212.9915	-291.5800	1.2197
213.0915	-291.5800	1.2237
213.1929	-291.5800	1.2221
213.2931	-291.5800	1.2241
213.3926	-291.5800	1.2207
213.4925	-291.5800	1.2210
213.5927	-291.5800	1.2200
213.6925	-291.5800	1.2201
213.7938	-291.5800	1.2177
213.8935	-291.5800	1.2199
213.9935	-291.5800	1.2197
214.0934	-291.5800	1.2203
214.1934	-291.5800	1.2182
214.2935	-291.5800	1.2176
214.3935	-291.5800	1.2165
214.4936	-291.5800	1.2175
214.5947	-291.5800	1.2152
214.6942	-291.5800	1.2152
214.7943	-291.5800	1.2167
214.8945	-291.5800	1.2181
214.9946	-291.5800	1.2160
215.0952	-291.5800	1.2163
215.1955	-291.5800	1.2160
215.2956	-291.5800	1.2149
215.3965	-291.5800	1.2130
215.4977	-291.5800	1.2158
215.5986	-291.5800	1.2158
215.6985	-291.5800	1.2127
215.7990	-291.5800	1.2124
215.8992	-291.5800	1.2131
215.9986	-291.5800	1.2152
216.0988	-291.5800	1.2143
216.1987	-291.5800	1.2135
216.2996	-291.5800	1.2144
216.3995	-291.5800	1.2158
216.5004	-291.5800	1.2167
216.6004	-291.5800	1.2147
216.7006	-291.5800	1.2153
216.8006	-291.5800	1.2191
216.9003	-291.5800	1.2144
217.0011	-291.5800	1.2126
217.1022	-291.5800	1.2142
217.2018	-291.5800	1.2143
217.3013	-291.5800	1.2131
217.4017	-291.5800	1.2088
217.5031	-291.5800	1.2119
217.6036	-291.5800	1.2144
217.7036	-291.5800	1.2119
217.8034	-291.5800	1.2114
217.9041	-291.5800	1.2101
218.0052	-291.5800	1.2113
218.1055	-291.5800	1.2105
218.2054	-291.5800	1.2079
218.3071	-291.5800	1.2125
218.4078	-291.5800	1.2106
218.5080	-291.5800	1.2108
218.6086	-291.5800	1.2122
218.7087	-291.5800	1.2149
218.8102	-291.5800	1.2135
218.9092	-291.5800	1.2150
219.0094	-291.5800	1.2136
219.1110	-291.5800	1.2128
219.2112	-291.5800	1.2158
219.3122	-291.5800	1.2157
219.4121	-291.5800	1.2106
219.5119	-291.5800	1.2136
219.6113	-291.5800	1.2144
219.7118	-291.5800	1.2108
219.8116	-291.4580	1.2102
219.9122	-291.2610	1.2137
220.0123	-291.0560	1.2114
220.1132	-290.8610	1.2073
220.2134	-290.6550	1.2096
220.3147	-290.4500	1.2184
220.4155	-290.2550	1.2140
220.5156	-290.0500	1.2089
220.6153	-289.8550	1.2099
220.7156	-289.6500	1.2113
220.8164	-289.4450	1.2104
220.9169	-289.2500	1.2047
221.0178	-289.0450	1.2027
221.1180	-288.8500	1.2056
221.2178	-288.6450	1.2007
221.3176	-288.4500	1.2019
221.4176	-288.2450	1.1982
221.5174	-288.0510	1.2019
221.6192	-287.8450	1.1950
221.7201	-287.6400	1.1933
221.8198	-287.4450	1.1898
221.9195	-287.2400	1.1928
222.0200	-287.0450	1.1880
222.1194	-286.8400	1.1852
222.2212	-286.6350	1.1857
222.3209	-286.4410	1.1833
222.4206	-286.2460	1.1833
222.5206	-286.0400	1.1794
222.6205	-285.8450	1.1796
222.7219	-285.6400	1.1802
222.8220	-285.4350	1.1767
222.9220	-285.2400	1.1728
223.0215	-285.0350	1.1717
223.1230	-284.8400	1.1711
223.2224	-284.6350	1.1701
223.3238	-284.4400	1.1689
223.4233	-284.2350	1.1699
223.5233	-284.0300	1.1697
223.6236	-283.8350	1.1678
223.7235	-283.6300	1.1635
223.8246	-283.4350	1.1638
223.9243	-283.2300	1.1660
224.0261	-283.0350	1.1615
224.1271	-282.8300	1.1583
224.2290	-282.6250	1.1576
224.3285	-282.4200	1.1599
224.4286	-282.2250	1.1576
224.5283	-282.0310	1.1546
224.6287	-281.8250	1.1535
224.7291	-281.6300	1.1531
224.8287	-281.4240	1.1536
224.9296	-281.2190	1.1524
225.0298	-281.0240	1.1501
225.1301	-280.8190	1.1494
225.2306	-280.6140	1.1476
225.3305	-280.4190	1.1464
225.4307	-280.2250	1.1459
225.5313	-280.0190	1.1468
225.6320	-279.8140	1.1470
225.7322	-279.6200	1.1464
225.8317	-279.4140	1.1456
225.9313	-279.2200	1.1467
226.0320	-279.0150	1.1455
226.1314	-278.8200	1.1442
226.2322	-278.6140	1.1398
226.3319	-278.4200	1.1400
226.4321	-278.2150	1.1402
226.5315	-278.0200	1.1387
226.6317	-277.8150	1.1395
226.7317	-277.6200	1.1417
226.8316	-277.4150	1.1395
226.9316	-277.2200	1.1371
227.0317	-277.0150	1.1371
227.1322	-276.8200	1.1370
227.2316	-276.6150	1.1331
227.3317	-276.4200	1.1328
227.4323	-276.2150	1.1331
227.5331	-276.0200	1.1363
227.6328	-275.8150	1.1333
227.7325	-275.6200	1.1350
227.8328	-275.4150	1.1337
227.9335	-275.2100	1.1356
228.0346	-275.0150	1.1330
228.1351	-274.8100	1.1303
228.2361	-274.6050	1.1322
228.3354	-274.4100	1.1334
228.4355	-274.2160	1.1343
228.5361	-274.0100	1.1310
228.6355	-273.8050	1.1296
228.7362	-273.6100	1.1295
228.8357	-273.4150	1.1326
228.9367	-273.2090	1.1328
229.0369	-273.0040	1.1253
229.1367	-272.8090	1.1249
229.2382	-272.6040	1.1262
229.3391	-272.3990	1.1296
229.4394	-272.2040	1.1302
229.5398	-271.9990	1.1303
229.6396	-271.8040	1.1287
229.7401	-271.5990	1.1293
229.8399	-271.4050	1.1299
229.9412	-271.1990	1.1272
230.0416	-270.9950	1.1329
230.1427	-270.8000	1.1307
230.2427	-270.5950	1.1326
230.3427	-270.3990	1.1305
230.4427	-270.1950	1.1294
230.5440	-269.9900	1.1327
230.6440	-269.7950	1.1302
230.7452	-269.5900	1.1325
230.8444	-269.3950	1.1325
230.9455	-269.1900	1.1358
231.0464	-268.9850	1.1334
231.1465	-268.7900	1.1326
231.2471	-268.5850	1.1328
231.3473	-268.3910	1.1307
231.4467	-268.1850	1.1308
231.5473	-267.9900	1.1331
231.6479	-267.7850	1.1378
231.7487	-267.5900	1.1405
231.8489	-267.3840	1.1396
231.9486	-267.1890	1.1375
232.0485	-266.9840	1.1372
232.1495	-266.7790	1.1364
232.2503	-266.5850	1.1392
232.3496	-266.3790	1.1443
232.4496	-266.1850	1.1432
232.5497	-265.9800	1.1452
232.6499	-265.7850	1.1457
232.7510	-265.5800	1.1472
232.8507	-265.3850	1.1490
232.9505	-265.1800	1.1511
233.0522	-264.9750	1.1511
233.1516	-264.7800	1.1532
233.2521	-264.5750	1.1539
233.3519	-264.3800	1.1562
233.4515	-264.1750	1.1603
233.5515	-263.9800	1.1604
233.6515	-263.7750	1.1629
233.7516	-263.5800	1.1650
233.8518	-263.3750	1.1655
233.9517	-263.1810	1.1674
234.0515	-262.9750	1.1722
234.1519	-262.7800	1.1750
234.2520	-262.5750	1.1759
234.3519	-262.3800	1.1827
234.4523	-262.1750	1.1847
234.5519	-261.9800	1.1883
234.6517	-261.7760	1.1907
234.7515	-261.5810	1.1953
234.8518	-261.3760	1.1952
234.9532	-261.1700	1.1996
235.0529	-260.9760	1.2038
235.1525	-260.7810	1.2080
235.2532	-260.5760	1.2089
235.3525	-260.3810	1.2133
235.4524	-260.1760	1.2161
235.5536	-259.9710	1.2176
235.6536	-259.7760	1.2213
235.7552	-259.5710	1.2239
235.8550	-259.3760	1.2279
235.9548	-259.1710	1.2291
236.0551	-258.9760	1.2348
236.1552	-258.7710	1.2374
236.2551	-258.5760	1.2405
236.3548	-258.3710	1.2446
236.4545	-258.1760	1.2488
236.5563	-257.9710	1.2538
236.6561	-257.7660	1.2546
236.7558	-257.5710	1.2554
236.8555	-257.3660	1.2579
236.9563	-257.1710	1.2629
237.0560	-256.9660	1.2656
237.1557	-256.7710	1.2674
237.2555	-256.5770	1.2715
237.3562	-256.3710	1.2739
237.4559	-256.1660	1.2756
237.5556	-255.9710	1.2785
237.6574	-255.7660	1.2844
237.7571	-255.5610	1.2873
237.8569	-255.3660	1.2919
237.9566	-255.1710	1.2935
238.0573	-254.9660	1.2965
238.1570	-254.7710	1.2977
238.2568	-254.5660	1.3016
238.3565	-254.3710	1.3019
238.4572	-254.1660	1.3030
238.5567	-253.9710	1.3062
238.6565	-253.7660	1.3096
238.7568	-253.5720	1.3135
238.8565	-253.3660	1.3178
238.9578	-253.1610	1.3197
239.0573	-252.9670	1.3248
239.1566	-252.7720	1.3283
239.2573	-252.5670	1.3312
239.3566	-252.3720	1.3349
239.4575	-252.1670	1.3358
239.5590	-251.9620	1.3414
239.6597	-251.7670	1.3432
239.7595	-251.5620	1.3433
239.8604	-251.3570	1.3490
239.9613	-251.1620	1.3506
240.0605	-250.9570	1.3538
240.1620	-250.7620	1.3553
240.2626	-250.5570	1.3611
240.3631	-250.3520	1.3603
240.4632	-250.1570	1.3651
240.5630	-249.9620	1.3677
240.6640	-249.7570	1.3693
240.7635	-249.5510	1.3732
240.8640	-249.3560	1.3751
240.9638	-249.1510	1.3758
241.0638	-248.9570	1.3769
241.1634	-248.7510	1.3810
241.2638	-248.5570	1.3826
241.3639	-248.3520	1.3801
241.4638	-248.1570	1.3807
241.5639	-247.9510	1.3790
241.6638	-247.7560	1.3766
241.7636	-247.5510	1.3769
241.8636	-247.3560	1.3785
241.9638	-247.1510	1.3773
242.0635	-246.9560	1.3763
242.1637	-246.7510	1.3774
242.2638	-246.5560	1.3782
242.3640	-246.3510	1.3776
242.4642	-246.1570	1.3779
242.5640	-245.9520	1.3777
242.6638	-245.7570	1.3795
242.7638	-245.5520	1.3787
242.8638	-245.3570	1.3795
242.9638	-245.1510	1.3799
243.0643	-244.9470	1.3810
243.1637	-244.7510	1.3829
243.2648	-244.5460	1.3815
243.3662	-244.3520	1.3816
243.4674	-244.1470	1.3828
243.5671	-243.9520	1.3838
243.6668	-243.7470	1.3837
243.7666	-243.5520	1.3829
243.8668	-243.3470	1.3853
243.9677	-243.1520	1.3857
244.0692	-242.9460	1.3825
244.1693	-242.7410	1.3852
244.2690	-242.5460	1.3859
244.3688	-242.3410	1.3842
244.4699	-242.1460	1.3855
244.5697	-241.9420	1.3848
244.6697	-241.7360	1.3866
244.7700	-241.5410	1.3857
244.8695	-241.3370	1.3880
244.9696	-241.1410	1.3893
245.0697	-240.9470	1.3891
245.1699	-240.7420	1.3890
245.2696	-240.5470	1.3905
245.3696	-240.3420	1.3908
245.4695	-240.1370	1.3891
245.5698	-239.9420	1.3899
245.6704	-239.7470	1.3893
245.7699	-239.5420	1.3890
245.8704	-239.3370	1.3910
245.9695	-239.1420	1.3928
246.0695	-238.9370	1.3936
246.1710	-238.7420	1.3941
246.2710	-238.5370	1.3945
246.3713	-238.3420	1.3926
246.4719	-238.1370	1.3958
246.5721	-237.9420	1.3950
246.6718	-237.7370	1.3933
246.7722	-237.5430	1.3948
246.8727	-237.3380	1.3914
246.9737	-237.1320	1.3966
247.0735	-236.9370	1.3957
247.1752	-236.7330	1.3964
247.2764	-236.5270	1.3953
247.3765	-236.3330	1.3955
247.4768	-236.1280	1.3966
247.5783	-235.9220	1.3968
247.6795	-235.7170	1.3931
247.7788	-235.5230	1.3962
247.8803	-235.3170	1.3970
247.9809	-235.1230	1.3952
248.0815	-234.9180	1.3981
248.1817	-234.7130	1.3942
248.2824	-234.5170	1.3946
248.3819	-234.3230	1.3942
248.4827	-234.1170	1.3912
248.5833	-233.9120	1.3917
248.6839	-233.7170	1.3932
248.7845	-233.5120	1.3932
248.8838	-233.3170	1.3928
248.9840	-233.1130	1.3925
249.0854	-232.9070	1.3936
249.1853	-232.7120	1.3929
249.2854	-232.5080	1.3929
249.3849	-232.3120	1.3914
249.4847	-232.1070	1.3905
249.5847	-231.9120	1.3910
249.6866	-231.7070	1.3922
249.7866	-231.5130	1.3926
249.8873	-231.3080	1.3917
249.9872	-231.1020	1.3931
250.0867	-230.9080	1.3946
250.1871	-230.7130	1.3910
250.2873	-230.5070	1.3905
250.3885	-230.3020	1.3912
250.4896	-230.1070	1.3915
250.5899	-229.9020	1.3919
250.6912	-229.6970	1.3917
250.7914	-229.5020	1.3919
250.8907	-229.2970	1.3937
250.9907	-229.1020	1.3923
251.0917	-228.8970	1.3913
251.1923	-228.7020	1.3900
251.2921	-228.4970	1.3926
251.3918	-228.3020	1.3905
251.4916	-228.0970	1.3910
251.5928	-227.8920	1.3911
251.6939	-227.6970	1.3930
251.7948	-227.4920	1.3907
251.8947	-227.2880	1.3895
251.9959	-227.0920	1.3922
252.0959	-226.8870	1.3905
252.1959	-226.6920	1.3931
252.2958	-226.4870	1.3914
252.3959	-226.2930	1.3908
252.4966	-226.0880	1.3916
252.5958	-225.8930	1.3921
252.6963	-225.6880	1.3918
252.7958	-225.4930	1.3919
252.8959	-225.2880	1.3890
252.9959	-225.0930	1.3880
253.0963	-224.8880	1.3905
253.1959	-224.6930	1.3921
253.2957	-224.4880	1.3907
253.3961	-224.2930	1.3906
253.4960	-224.0880	1.3915
253.5959	-223.8930	1.3896
253.6975	-223.6880	1.3892
253.7975	-223.4930	1.3891
253.8983	-223.2780	1.3913
253.9978	-223.0830	1.3899
254.0985	-222.8880	1.3894
254.1995	-222.6830	1.3889
254.2992	-222.4880	1.3911
254.3990	-222.2830	1.3905
254.4990	-222.0880	1.3887
254.5994	-221.8830	1.3910
254.6993	-221.6780	1.3868
254.7995	-221.4830	1.3892
254.8996	-221.2790	1.3882
255.0002	-221.0840	1.3888
255.0999	-220.8780	1.3903
255.2002	-220.6830	1.3901
255.2998	-220.4790	1.3894
255.4002	-220.2840	1.3885
255.5004	-220.0790	1.3879
255.5999	-219.8840	1.3904
255.7006	-219.6790	1.3882
255.8013	-219.4840	1.3891
255.9009	-219.2780	1.3885
256.0010	-219.0730	1.3893
256.1009	-218.8780	1.3888
256.2010	-218.6840	1.3873
256.3012	-218.4780	1.3885
256.4015	-218.2830	1.3882
256.5006	-218.0780	1.3881
256.6009	-217.8830	1.3882
256.7015	-217.6780	1.3876
256.8007	-217.6690	1.3893
256.9019	-217.6690	1.3881
257.0010	-217.6690	1.3875
257.1016	-217.6690	1.3882
257.2047	-217.6690	1.3892
257.3044	-217.6700	1.3821
257.4054	-217.6930	1.3903
257.5054	-217.9070	1.3871
257.6049	-218.1020	1.3895
257.7049	-218.3070	1.3872
257.8053	-218.5020	1.3864
257.9049	-218.7070	1.3860
258.0059	-218.9130	1.3829
258.1059	-219.1070	1.3889
258.2063	-219.3120	1.3862
258.3067	-219.5070	1.3873
258.4058	-219.7120	1.3865
258.5056	-219.9070	1.3878
258.6062	-220.1120	1.3874
258.7069	-220.3070	1.3874
258.8071	-220.5120	1.3887
258.9069	-220.7070	1.3895
259.0069	-220.9120	1.3890
259.1070	-221.1070	1.3868
259.2070	-221.3120	1.3894
259.3070	-221.5070	1.3883
259.4069	-221.7120	1.3874
259.5085	-221.9170	1.3889
259.6085	-222.1120	1.3883
259.7083	-222.3070	1.3881
259.8080	-222.5130	1.3887
259.9081	-222.7180	1.3878
260.0078	-222.9120	1.3873
260.1082	-223.1070	1.3891
260.2078	-223.3120	1.3871
260.3086	-223.5070	1.3886
260.4081	-223.7120	1.3865
260.5096	-223.9170	1.3861
260.6089	-224.1120	1.3853
260.7091	-224.3170	1.3892
260.8091	-224.5120	1.3886
260.9106	-224.7170	1.3887
261.0108	-224.9120	1.3892
261.1112	-225.1180	1.3895
261.2112	-225.3230	1.3885
261.3116	-225.5180	1.3886
261.4107	-225.7120	1.3886
261.5117	-225.9180	1.3883
261.6122	-226.1230	1.3883
261.7123	-226.4900	1.3863
261.8122	-227.5120	1.3858
261.9123	-228.4860	1.3873
262.0121	-229.5110	1.3901
262.1121	-230.4850	1.3881
262.2119	-231.5100	1.3897
262.3117	-232.4840	1.3658
262.4122	-233.5100	1.3898
262.5118	-234.4840	1.3874
262.6127	-235.5090	1.3908
262.7131	-236.5350	1.3874
262.8140	-237.5090	1.3883
262.9140	-238.5340	1.3892
263.0140	-239.5080	1.3890
263.1141	-240.5340	1.3890
263.2137	-241.5080	1.3878
263.3141	-242.5330	1.3896
263.4153	-243.5070	1.3900
263.5161	-244.5370	1.3919
263.6163	-245.5620	1.3896
263.7173	-246.5360	1.3879
263.8177	-247.5620	1.3854
263.9180	-248.5350	1.3844
264.0178	-249.5610	1.3799
264.1177	-250.5350	1.3791
264.2181	-251.5600	1.3800
264.3177	-252.5340	1.3752
264.4195	-253.5600	1.3725
264.5192	-254.5850	1.3674
264.6190	-255.5590	1.3697
264.7200	-256.5850	1.3650
264.8198	-257.5590	1.3601
264.9206	-258.5850	1.3543
265.0203	-259.5580	1.3377
265.1197	-260.5840	1.3221
265.2218	-261.6090	1.3050
265.3209	-262.5830	1.2895
265.4210	-263.6080	1.2757
265.5212	-264.5820	1.2578
265.6221	-265.6080	1.2434
265.7223	-266.6340	1.2292
265.8220	-267.3240	1.2118
265.9230	-267.3360	1.1943
266.0232	-267.3360	1.1815
266.1228	-267.3360	1.1636
266.2230	-267.3350	1.1495
266.3230	-267.3350	1.1356
266.4235	-267.3350	1.1494
266.5244	-267.3350	1.1313
266.6240	-267.3350	1.1298
266.7242	-267.3350	1.1350
266.8240	-267.3350	1.1357
266.9241	-267.3350	1.1360
267.0238	-267.3350	1.1372
267.1245	-267.3350	1.1357
267.2243	-267.3350	1.1327
267.3240	-267.3350	1.1344
267.4238	-267.3350	1.1357
267.5240	-267.3350	1.1348
267.6251	-267.3350	1.1349
267.7262	-267.3350	1.1344
267.8260	-267.3350	1.1334
267.9277	-267.3350	1.1355
268.0268	-267.3350	1.1333
268.1284	-267.3350	1.1339
268.2295	-267.3350	1.1354
268.3300	-267.3350	1.1334
268.4316	-267.3350	1.1319
268.5313	-267.3350	1.1338
268.6326	-267.3350	1.1319
268.7341	-267.3350	1.1335
268.8344	-267.3350	1.1334
268.9346	-267.3350	1.1353
269.0346	-267.3350	1.1366
269.1352	-267.3350	1.1370
269.2355	-267.3350	1.1369
269.3364	-267.3350	1.1355
269.4363	-267.3350	1.1351
269.5364	-267.3350	1.1369
269.6364	-267.3350	1.1364
269.7364	-267.3350	1.1360
269.8362	-267.3350	1.1369
269.9364	-267.3350	1.1357
270.0365	-267.3350	1.1348
270.1360	-267.3350	1.1359
270.2360	-267.3350	1.1401
270.3377	-267.3350	1.1396
270.4386	-267.3350	1.1361
270.5380	-267.3350	1.1358
270.6385	-267.3350	1.1362
270.7383	-267.3350	1.1365
270.8378	-267.3350	1.1364
270.9388	-267.3350	1.1357
271.0406	-267.3350	1.1356
271.1405	-267.3350	1.1359
271.2406	-267.3350	1.1351
271.3403	-267.3350	1.1345
271.4404	-267.3350	1.1336
271.5420	-267.3350	1.1350
271.6418	-267.3350	1.1368
271.7423	-267.3350	1.1402
271.8424	-267.3350	1.1392
271.9431	-267.3350	1.1350
272.0434	-267.3350	1.1315
272.1436	-267.3350	1.1338
272.2439	-267.3350	1.1335
272.3441	-267.3350	1.1328
272.4441	-267.3350	1.1318
272.5441	-267.3350	1.1331
272.6438	-267.3350	1.1339
272.7441	-267.3350	1.1342
272.8441	-267.3350	1.1331
272.9440	-267.3350	1.1321
273.0441	-267.3350	1.1320
273.1441	-267.3350	1.1326
273.2440	-267.3350	1.1311
273.3455	-267.3350	1.1317
273.4462	-267.3350	1.1301
273.5464	-267.3350	1.1318
273.6460	-267.3350	1.1316
273.7462	-267.3350	1.1327
273.8465	-267.3350	1.1330
273.9464	-267.3350	1.1336
274.0460	-267.3350	1.1348
274.1460	-267.3350	1.1351
274.2471	-267.3350	1.1351
274.3474	-267.3350	1.1347
274.4481	-267.3350	1.1351
274.5481	-267.3350	1.1368
274.6482	-267.3350	1.1369
274.7484	-267.3350	1.1392
274.8478	-267.3350	1.1375
274.9480	-267.3350	1.1353
275.0487	-267.3350	1.1353
